1042.452273	696.0
1043.018714	698.0
1043.585098	696.0
1044.151424	697.75
1044.717692	694.0
1045.283903	694.5
1045.850056	694.25
1046.416151	696.0
1046.982188	695.0
1047.548167	696.5
1048.114089	690.5
1048.679953	688.0
1049.24576	692.0
1049.811509	694.5
1050.3772	692.75
1050.942833	691.0
1051.508408	691.25
1052.073926	689.75
1052.639387	695.0
1053.204789	695.75
1053.770134	689.75
1054.335421	693.0
1054.900651	692.5
1055.465823	690.25
1056.030937	693.0
1056.595993	691.5
1057.160992	692.5
1057.725934	689.5
1058.290817	690.5
1058.855643	686.5
1059.420411	688.75
1059.985122	690.0
1060.549775	687.75
1061.114371	687.75
1061.678908	686.25
1062.243389	688.5
1062.807811	689.75
1063.372176	689.75
1063.936483	690.75
1064.500733	688.0
1065.064925	687.5
1065.62906	686.25
1066.193137	692.5
1066.757156	689.75
1067.321118	692.0
1067.885022	689.75
1068.448869	689.5
1069.012658	685.25
1069.57639	689.75
1070.140063	696.25
1070.70368	690.5
1071.267239	688.0
1071.83074	692.5
1072.394184	685.75
1072.95757	688.75
1073.520899	688.25
1074.08417	693.0
1074.647383	687.0
1075.21054	688.25
1075.773638	691.0
1076.336679	690.25
1076.899663	686.25
1077.462589	689.75
1078.025457	692.5
1078.588268	687.5
1079.151022	689.25
1079.713718	688.25
1080.276356	685.75
1080.838937	685.5
1081.401461	686.5
1081.963927	688.5
1082.526336	688.0
1083.088687	688.25
1083.650981	687.25
1084.213217	687.25
1084.775396	686.25
1085.337517	689.25
1085.899581	688.5
1086.461587	688.5
1087.023536	685.75
1087.585428	687.0
1088.147262	687.75
1088.709039	688.0
1089.270758	688.75
1089.83242	689.5
1090.394024	687.0
1090.955571	691.0
1091.517061	687.5
1092.078493	688.5
1092.639868	689.75
1093.201185	690.75
1093.762445	688.25
1094.323648	689.25
1094.884793	685.25
1095.445881	687.75
1096.006911	686.75
1096.567884	685.5
1097.1288	695.25
1097.689659	686.5
1098.25046	686.25
1098.811203	690.5
1099.37189	687.25
1099.932518	690.0
1100.49309	692.0
1101.053604	692.0
1101.614061	686.0
1102.174461	686.5
1102.734803	688.75
1103.295088	684.75
1103.855316	688.25
1104.415486	686.75
1104.975599	687.75
1105.535655	688.0
1106.095653	691.75
1106.655594	689.5
1107.215478	692.5
1107.775305	688.75
1108.335074	687.0
1108.894786	689.25
1109.45444	687.5
1110.014038	689.5
1110.573578	686.75
1111.133061	686.75
1111.692486	689.0
1112.251854	688.25
1112.811165	690.25
1113.370419	690.75
1113.929616	689.25
1114.488755	684.25
1115.047837	686.0
1115.606862	687.25
1116.16583	685.5
1116.72474	689.0
1117.283593	685.0
1117.842389	685.75
1118.401128	690.25
1118.959809	687.25
1119.518433	689.75
1120.077	694.0
1120.63551	683.75
1121.193963	687.5
1121.752358	689.0
1122.310697	690.25
1122.868978	688.5
1123.427202	689.25
1123.985368	686.25
1124.543478	688.75
1125.10153	692.5
1125.659526	691.75
1126.217464	687.0
1126.775345	694.25
1127.333168	691.0
1127.890935	694.75
1128.448644	693.25
1129.006297	694.5
1129.563892	690.75
1130.12143	689.25
1130.678911	690.5
1131.236335	692.5
1131.793701	691.0
1132.351011	687.25
1132.908263	688.0
1133.465458	689.5
1134.022597	689.0
1134.579678	687.25
1135.136702	690.0
1135.693669	686.25
1136.250578	689.25
1136.807431	687.75
1137.364227	688.25
1137.920965	690.25
1138.477647	691.75
1139.034271	690.25
1139.590839	693.75
1140.147349	688.25
1140.703802	690.75
1141.260198	688.0
1141.816537	690.25
1142.37282	692.75
1142.929045	703.0
1143.485213	700.75
1144.041323	701.0
1144.597377	697.0
1145.153374	695.25
1145.709314	693.0
1146.265197	695.0
1146.821023	698.75
1147.376792	716.75
1147.932503	711.0
1148.488158	704.25
1149.043756	700.75
1149.599297	718.25
1150.154781	786.75
1150.710207	896.5
1151.265577	823.25
1151.82089	732.0
1152.376146	699.75
1152.931345	697.0
1153.486487	689.5
1154.041572	696.0
1154.5966	692.0
1155.151571	690.0
1155.706485	692.5
1156.261342	693.5
1156.816142	691.5
1157.370885	689.5
1157.925572	688.25
1158.480201	691.25
1159.034774	691.75
1159.589289	691.0
1160.143748	690.0
1160.698149	692.5
1161.252494	688.25
1161.806782	691.25
1162.361013	688.5
1162.915187	693.75
1163.469304	687.0
1164.023364	692.75
1164.577368	690.75
1165.131314	691.75
1165.685204	693.0
1166.239036	688.75
1166.792812	688.75
1167.346531	685.25
1167.900193	692.25
1168.453798	691.0
1169.007347	688.0
1169.560838	686.5
1170.114273	687.75
1170.66765	686.0
1171.220971	691.25
1171.774235	688.5
1172.327443	690.0
1172.880593	685.0
1173.433687	687.25
1173.986723	688.5
1174.539703	689.75
1175.092626	685.25
1175.645493	687.75
1176.198302	690.25
1176.751055	688.75
1177.303751	690.5
1177.85639	688.5
1178.408972	688.75
1178.961498	690.0
1179.513966	687.0
1180.066378	688.25
1180.618733	684.75
1181.171032	685.5
1181.723273	687.5
1182.275458	689.75
1182.827586	687.5
1183.379657	686.5
1183.931672	689.0
1184.48363	686.25
1185.035531	693.0
1185.587375	691.0
1186.139162	691.75
1186.690893	688.75
1187.242567	685.75
1187.794184	687.5
1188.345745	691.5
1188.897249	687.75
1189.448696	684.75
1190.000086	687.5
1190.55142	686.5
1191.102697	684.5
1191.653918	685.0
1192.205081	690.75
1192.756188	689.0
1193.307238	711.0
1193.858232	691.0
1194.409169	686.25
1194.960049	685.0
1195.510872	687.0
1196.061639	683.5
1196.612349	687.75
1197.163003	691.75
1197.713599	683.75
1198.264139	688.25
1198.814623	688.0
1199.36505	687.0
1199.91542	689.5
1200.465734	684.75
1201.01599	689.25
1201.566191	687.5
1202.116334	689.25
1202.666421	692.25
1203.216452	686.0
1203.766425	683.5
1204.316343	685.75
1204.866203	685.0
1205.416007	687.25
1205.965754	693.5
1206.515445	687.25
1207.065079	687.25
1207.614657	689.5
1208.164177	687.5
1208.713642	686.75
1209.26305	691.25
1209.812401	689.0
1210.361695	688.25
1210.910933	685.0
1211.460115	687.0
1212.00924	687.75
1212.558308	687.0
1213.10732	689.5
1213.656275	687.5
1214.205174	687.75
1214.754016	688.25
1215.302801	687.0
1215.85153	683.5
1216.400203	685.25
1216.948819	685.75
1217.497378	689.25
1218.045881	686.25
1218.594327	686.0
1219.142717	688.75
1219.691051	690.25
1220.239327	692.0
1220.787548	688.5
1221.335712	690.0
1221.883819	690.25
1222.43187	687.25
1222.979864	687.5
1223.527802	688.25
1224.075683	688.75
1224.623508	687.25
1225.171277	689.25
1225.718989	687.5
1226.266644	686.5
1226.814243	684.25
1227.361786	689.0
1227.909272	689.25
1228.456702	685.5
1229.004075	689.5
1229.551392	688.25
1230.098652	687.5
1230.645856	688.75
1231.193003	688.0
1231.740094	690.5
1232.287129	689.5
1232.834107	691.5
1233.381029	689.0
1233.927894	688.0
1234.474703	688.25
1235.021455	694.5
1235.568151	686.5
1236.114791	692.0
1236.661374	687.0
1237.207901	689.0
1237.754372	687.75
1238.300786	687.25
1238.847144	687.75
1239.393445	695.75
1239.93969	690.5
1240.485879	690.25
1241.032011	687.0
1241.578087	687.5
1242.124106	689.5
1242.67007	688.0
1243.215976	687.25
1243.761827	687.25
1244.307621	687.75
1244.853359	689.25
1245.39904	690.0
1245.944665	685.5
1246.490234	688.75
1247.035746	691.25
1247.581203	690.5
1248.126602	686.5
1248.671946	686.5
1249.217233	687.75
1249.762464	690.75
1250.307638	688.0
1250.852757	692.0
1251.397819	685.75
1251.942824	688.5
1252.487774	691.75
1253.032667	687.5
1253.577503	694.75
1254.122284	687.25
1254.667008	688.5
1255.211676	690.0
1255.756288	689.25
1256.300843	689.75
1256.845342	684.5
1257.389785	690.5
1257.934172	686.25
1258.478502	687.5
1259.022776	690.0
1259.566994	692.0
1260.111156	706.0
1260.655261	691.75
1261.199311	689.5
1261.743304	690.5
1262.28724	691.5
1262.831121	692.0
1263.374945	697.75
1263.918713	700.25
1264.462425	713.25
1265.006081	734.5
1265.54968	736.0
1266.093223	712.0
1266.636711	699.5
1267.180141	694.25
1267.723516	692.75
1268.266835	694.75
1268.810097	691.5
1269.353303	688.5
1269.896453	690.25
1270.439547	687.25
1270.982584	689.25
1271.525566	689.25
1272.068491	687.75
1272.61136	688.5
1273.154173	689.25
1273.69693	685.5
1274.239631	691.25
1274.782275	689.75
1275.324864	689.25
1275.867396	688.0
1276.409872	685.25
1276.952292	688.5
1277.494656	687.0
1278.036964	689.25
1278.579215	687.0
1279.121411	688.5
1279.66355	688.75
1280.205634	692.75
1280.747661	691.0
1281.289632	691.5
1281.831547	693.5
1282.373406	695.25
1282.915209	699.0
1283.456955	715.0
1283.998646	736.0
1284.540281	819.0
1285.081859	1085.75
1285.623381	1350.75
1286.164848	995.0
1286.706258	768.0
1287.247612	717.5
1287.788911	704.25
1288.330153	700.5
1288.871339	696.0
1289.412469	694.0
1289.953543	691.5
1290.494561	691.75
1291.035523	693.0
1291.576428	693.0
1292.117278	691.5
1292.658072	690.25
1293.19881	691.0
1293.739492	689.25
1294.280118	689.75
1294.820687	688.25
1295.361201	689.0
1295.901659	688.75
1296.442061	690.25
1296.982406	689.0
1297.522696	691.5
1298.06293	687.75
1298.603108	689.75
1299.143229	690.75
1299.683295	691.0
1300.223305	687.0
1300.763259	686.0
1301.303157	690.0
1301.842999	689.0
1302.382785	684.25
1302.922515	687.0
1303.462189	687.25
1304.001807	685.0
1304.541369	687.0
1305.080875	685.5
1305.620326	688.5
1306.15972	688.75
1306.699058	687.0
1307.238341	690.5
1307.777567	686.25
1308.316738	685.5
1308.855853	686.25
1309.394912	688.5
1309.933915	685.25
1310.472862	687.25
1311.011753	686.0
1311.550588	688.5
1312.089367	686.0
1312.62809	687.5
1313.166758	690.75
1313.70537	689.5
1314.243925	688.75
1314.782425	686.25
1315.320869	689.25
1315.859257	686.75
1316.397589	686.0
1316.935866	689.0
1317.474086	687.5
1318.012251	686.0
1318.55036	693.0
1319.088413	690.75
1319.62641	688.75
1320.164351	685.5
1320.702236	689.25
1321.240066	685.5
1321.777839	685.25
1322.315557	687.0
1322.853219	687.5
1323.390826	689.25
1323.928376	695.0
1324.465871	683.5
1325.003309	687.25
1325.540692	690.0
1326.07802	691.25
1326.615291	682.75
1327.152506	688.0
1327.689666	688.75
1328.22677	688.25
1328.763818	689.5
1329.300811	687.5
1329.837747	686.25
1330.374628	688.5
1330.911453	686.25
1331.448222	688.5
1331.984936	683.25
1332.521594	687.75
1333.058196	687.75
1333.594742	689.75
1334.131232	690.5
1334.667667	683.0
1335.204046	687.0
1335.740369	683.75
1336.276637	691.0
1336.812848	689.25
1337.349004	689.75
1337.885105	689.0
1338.421149	688.25
1338.957138	682.5
1339.493071	684.0
1340.028949	689.25
1340.56477	685.75
1341.100536	690.0
1341.636246	686.5
1342.171901	688.25
1342.7075	691.25
1343.243043	691.25
1343.77853	690.75
1344.313962	685.0
1344.849338	689.75
1345.384659	689.25
1345.919923	688.0
1346.455133	685.25
1346.990286	686.0
1347.525384	686.25
1348.060426	688.25
1348.595412	692.5
1349.130343	689.5
1349.665218	687.25
1350.200037	689.0
1350.734801	690.0
1351.269509	685.5
1351.804162	686.5
1352.338758	684.0
1352.8733	689.0
1353.407785	687.75
1353.942215	689.0
1354.476589	687.25
1355.010908	686.25
1355.545171	691.0
1356.079379	686.25
1356.61353	691.0
1357.147627	684.25
1357.681667	690.75
1358.215652	691.25
1358.749582	690.75
1359.283456	689.25
1359.817274	688.5
1360.351037	687.25
1360.884744	687.0
1361.418395	687.5
1361.951991	687.25
1362.485531	690.0
1363.019016	687.75
1363.552445	688.5
1364.085819	687.75
1364.619137	687.75
1365.1524	685.0
1365.685607	688.5
1366.218758	688.75
1366.751854	693.5
1367.284894	692.0
1367.817879	686.75
1368.350808	689.25
1368.883682	688.0
1369.4165	689.5
1369.949263	693.25
1370.48197	706.0
1371.014622	698.75
1371.547218	689.25
1372.079758	688.75
1372.612244	687.0
1373.144673	688.75
1373.677047	691.75
1374.209366	687.0
1374.741629	688.75
1375.273836	690.0
1375.805989	690.0
1376.338085	691.25
1376.870126	689.0
1377.402112	691.0
1377.934042	691.0
1378.465917	690.25
1378.997736	688.75
1379.5295	689.5
1380.061208	692.25
1380.592861	690.5
1381.124459	690.5
1381.656	692.25
1382.187487	691.5
1382.718918	694.0
1383.250294	693.0
1383.781614	693.0
1384.312879	693.5
1384.844088	698.0
1385.375242	700.0
1385.90634	705.75
1386.437383	717.5
1386.968371	723.5
1387.499303	759.25
1388.03018	928.75
1388.561001	1591.5
1389.091767	1618.0
1389.622478	938.5
1390.153133	756.0
1390.683733	720.75
1391.214277	708.25
1391.744766	702.25
1392.2752	698.75
1392.805578	694.75
1393.335901	694.0
1393.866168	695.0
1394.396381	689.75
1394.926537	690.5
1395.456639	688.25
1395.986685	687.5
1396.516675	694.25
1397.046611	690.5
1397.576491	692.75
1398.106315	688.75
1398.636084	690.25
1399.165798	691.5
1399.695457	685.75
1400.22506	688.5
1400.754608	691.0
1401.284101	687.25
1401.813538	690.75
1402.34292	688.25
1402.872247	690.5
1403.401518	684.0
1403.930734	689.75
1404.459895	687.0
1404.989	689.25
1405.51805	692.5
1406.047045	692.5
1406.575984	690.75
1407.104869	690.75
1407.633697	689.25
1408.162471	696.5
1408.691189	699.75
1409.219852	707.25
1409.74846	753.0
1410.277013	772.25
1410.80551	734.75
1411.333952	704.25
1411.862339	694.5
1412.39067	692.25
1412.918946	689.75
1413.447167	691.0
1413.975333	690.75
1414.503444	690.75
1415.031499	687.5
1415.559499	704.25
1416.087444	686.0
1416.615333	684.25
1417.143167	687.0
1417.670947	685.0
1418.19867	690.0
1418.726339	687.75
1419.253952	688.75
1419.781511	685.25
1420.309014	691.25
1420.836461	688.0
1421.363854	685.75
1421.891191	689.75
1422.418474	691.25
1422.945701	686.0
1423.472872	686.0
1423.999989	689.25
1424.52705	688.0
1425.054057	686.5
1425.581008	686.0
1426.107904	688.75
1426.634745	686.5
1427.16153	690.75
1427.688261	687.25
1428.214936	683.75
1428.741556	685.25
1429.268121	691.0
1429.794631	686.75
1430.321085	688.75
1430.847485	686.75
1431.373829	691.75
1431.900118	686.0
1432.426353	682.75
1432.952532	684.5
1433.478655	686.5
1434.004724	686.0
1434.530738	687.25
1435.056696	682.25
1435.5826	681.75
1436.108448	685.25
1436.634241	692.5
1437.159979	688.5
1437.685662	687.25
1438.21129	686.75
1438.736863	687.75
1439.262381	683.5
1439.787843	688.5
1440.313251	688.5
1440.838603	687.75
1441.3639	689.25
1441.889143	687.25
1442.41433	686.5
1442.939462	685.25
1443.464539	681.75
1443.989561	681.25
1444.514528	685.5
1445.03944	686.0
1445.564297	686.75
1446.089099	686.25
1446.613846	686.75
1447.138537	683.5
1447.663174	689.25
1448.187756	686.5
1448.712282	686.0
1449.236754	683.0
1449.761171	683.75
1450.285532	683.5
1450.809839	686.5
1451.33409	682.0
1451.858287	681.25
1452.382428	681.5
1452.906515	686.75
1453.430546	693.75
1454.478444	687.0
1455.002311	684.0
1455.526123	684.75
1456.049879	679.75
1456.573581	684.0
1457.097227	682.25
1457.620819	681.25
1458.144356	683.0
1458.667837	684.0
1459.191264	686.5
1459.714636	683.0
1460.237952	681.5
1460.761214	685.5
1461.284421	687.75
1461.807573	684.0
1462.33067	685.75
1462.853712	692.5
1463.376699	690.5
1463.899632	683.0
1464.422509	684.5
1464.945331	685.75
1465.468099	687.0
1465.990811	680.25
1466.513469	683.5
1467.036071	680.25
1467.558619	685.75
1468.081112	684.25
1468.60355	679.25
1469.125933	685.25
1469.648261	688.25
1470.170534	683.75
1470.692752	679.0
1471.214916	684.0
1471.737024	682.75
1472.259078	683.25
1472.781077	684.75
1473.303021	687.75
1473.82491	679.25
1474.346744	682.75
1474.868523	682.0
1475.390248	683.75
1475.911917	685.0
1476.433532	684.0
1476.955092	680.75
1477.476597	683.25
1477.998047	685.25
1478.519442	680.25
1479.040783	686.25
1479.562068	685.75
1480.083299	683.5
1480.604475	680.75
1481.125596	684.0
1481.646663	684.0
1482.167674	679.75
1482.688631	684.75
1483.209533	684.0
1483.73038	683.75
1484.251172	682.0
1484.771909	686.75
1485.292592	680.75
1485.81322	681.75
1486.333793	686.0
1486.854311	679.0
1487.374775	683.25
1487.895183	682.5
1488.415537	684.25
1488.935836	680.75
1489.456081	681.5
1489.97627	678.75
1490.496405	680.5
1491.016485	680.75
1491.536511	682.25
1492.056481	681.75
1492.576397	679.0
1493.096258	685.75
1493.616064	678.25
1494.135816	682.75
1494.655513	681.5
1495.175155	679.75
1495.694742	681.25
1496.214274	685.0
1496.733752	682.5
1497.253175	682.75
1497.772544	685.25
1498.291858	681.75
1498.811116	681.75
1499.330321	677.25
1499.84947	689.0
1500.368565	681.25
1500.887605	687.5
1501.406591	683.25
1501.925521	681.0
1502.444397	683.75
1502.963219	681.5
1503.481985	681.75
1504.000697	677.5
1504.519355	679.5
1505.037957	683.0
1505.556505	681.0
1506.074999	680.25
1506.593437	680.75
1507.111821	684.5
1507.63015	681.75
1508.148425	681.0
1508.666645	682.0
1509.18481	688.5
1509.702921	684.25
1510.220977	682.0
1510.738979	690.75
1511.256925	680.25
1511.774817	682.25
1512.292655	680.75
1512.810438	684.0
1513.328166	680.5
1513.84584	686.0
1514.363459	683.25
1514.881023	684.0
1515.398533	684.0
1515.915988	682.0
1516.433389	682.0
1516.950734	682.75
1517.468026	683.75
1517.985263	680.75
1518.502445	682.0
1519.019572	685.0
1519.536645	680.5
1520.053664	680.25
1520.570628	684.5
1521.087537	679.25
1521.604392	683.0
1522.121192	679.0
1522.637937	682.75
1523.154628	683.75
1523.671265	682.75
1524.187847	682.25
1524.704374	681.0
1525.220847	680.0
1525.737265	685.5
1526.253629	689.25
1526.769938	686.0
1527.286192	679.0
1527.802392	683.5
1528.318538	683.75
1528.834629	682.5
1529.350666	681.5
1529.866648	682.75
1530.382575	682.75
1530.898448	677.75
1531.414266	682.5
1531.93003	680.0
1532.44574	681.25
1532.961395	679.25
1533.476995	681.5
1533.992541	686.25
1534.508033	678.5
1535.02347	681.75
1535.538852	677.5
1536.05418	682.5
1536.569454	678.0
1537.084673	683.5
1537.599837	681.0
1538.114947	681.5
1538.630003	679.75
1539.145004	686.75
1539.659951	681.75
1540.174843	682.25
1540.689681	683.5
1541.204465	683.0
1541.719194	684.5
1542.233868	680.0
1542.748488	680.25
1543.263054	681.75
1543.777565	680.75
1544.292022	683.25
1544.806424	680.75
1545.320772	682.5
1545.835066	678.75
1546.349305	681.0
1546.863489	679.25
1547.37762	682.75
1547.891696	680.5
1548.405717	684.5
1548.919684	679.0
1549.433597	680.25
1549.947455	682.0
1550.461259	683.0
1550.975009	681.0
1551.488704	687.75
1552.002345	679.0
1552.515931	680.75
1553.029463	681.25
1553.542941	686.5
1554.056364	681.0
1554.569733	682.5
1555.083048	677.25
1555.596308	681.5
1556.109514	679.25
1556.622665	680.5
1557.135762	687.75
1557.648805	683.25
1558.161794	685.25
1558.674728	683.0
1559.187608	681.5
1559.700433	679.25
1560.213205	679.5
1560.725921	683.5
1561.238584	681.5
1561.751192	683.5
1562.263746	679.75
1562.776246	682.0
1563.288691	686.5
1563.801082	682.25
1564.313419	680.5
1564.825701	682.5
1565.337929	679.0
1565.850103	684.0
1566.362223	682.5
1566.874288	684.75
1567.386299	682.5
1567.898256	686.0
1568.410158	685.5
1568.922007	681.25
1569.4338	682.25
1569.94554	682.0
1570.457226	687.0
1570.968857	682.25
1571.480434	680.0
1571.991956	681.0
1572.503425	680.5
1573.014839	683.0
1573.526199	683.5
1574.037505	684.75
1574.548756	682.5
1575.059953	682.0
1575.571096	678.25
1576.082185	682.0
1576.59322	684.25
1577.1042	685.75
1577.615126	681.25
1578.125998	677.5
1578.636816	683.5
1579.14758	685.75
1579.658289	681.0
1580.168944	685.0
1580.679545	681.25
1581.190092	680.5
1581.700585	680.0
1582.211023	682.0
1582.721407	677.75
1583.231737	677.5
1583.742013	681.0
1584.252235	683.0
1584.762403	679.75
1585.272516	681.25
1585.782575	678.25
1586.292581	680.75
1586.802532	681.0
1587.312428	681.25
1587.822271	681.75
1588.33206	680.25
1588.841794	680.0
1589.351474	682.5
1589.8611	683.5
1590.370672	683.0
1590.88019	682.5
1591.389654	680.75
1591.899064	682.0
1592.408419	681.25
