1042.452273	706.25
1043.018714	702.0
1043.585098	703.0
1044.151424	701.0
1044.717692	696.75
1045.283903	697.0
1045.850056	697.25
1046.416151	695.75
1046.982188	695.25
1047.548167	692.75
1048.114089	695.25
1048.679953	689.25
1049.24576	687.75
1049.811509	692.0
1050.3772	690.25
1050.942833	686.75
1051.508408	690.0
1052.073926	689.5
1052.639387	684.25
1053.204789	690.25
1053.770134	683.0
1054.335421	686.5
1054.900651	688.0
1055.465823	691.5
1056.030937	687.0
1056.595993	686.5
1057.160992	688.0
1057.725934	684.0
1058.290817	683.5
1058.855643	685.75
1059.420411	683.75
1059.985122	687.5
1060.549775	680.0
1061.114371	686.25
1061.678908	681.5
1062.243389	681.5
1062.807811	682.5
1063.372176	684.75
1063.936483	689.0
1064.500733	681.0
1065.064925	685.0
1065.62906	685.25
1066.193137	685.5
1066.757156	685.25
1067.321118	679.75
1067.885022	684.5
1068.448869	682.25
1069.012658	684.0
1069.57639	681.25
1070.140063	689.25
1070.70368	684.25
1071.267239	680.5
1071.83074	680.5
1072.394184	679.5
1072.95757	681.0
1073.520899	679.75
1074.08417	679.25
1074.647383	682.75
1075.21054	677.0
1075.773638	681.5
1076.336679	685.25
1076.899663	686.5
1077.462589	680.75
1078.025457	683.5
1078.588268	681.5
1079.151022	678.75
1079.713718	683.75
1080.276356	679.5
1080.838937	682.0
1081.401461	677.5
1081.963927	682.25
1082.526336	681.75
1083.088687	685.75
1083.650981	684.0
1084.213217	678.5
1084.775396	682.5
1085.337517	680.5
1085.899581	679.0
1086.461587	680.5
1087.023536	677.5
1087.585428	679.5
1088.147262	680.5
1088.709039	684.25
1089.270758	684.5
1089.83242	682.25
1090.394024	678.75
1090.955571	680.25
1091.517061	677.25
1092.078493	680.25
1092.639868	684.5
1093.201185	683.5
1093.762445	681.5
1094.323648	679.25
1094.884793	676.75
1095.445881	678.25
1096.006911	682.5
1096.567884	679.25
1097.1288	687.25
1097.689659	678.5
1098.25046	676.5
1098.811203	679.25
1099.37189	678.75
1099.932518	680.25
1100.49309	678.0
1101.053604	679.75
1101.614061	677.25
1102.174461	682.75
1102.734803	680.25
1103.295088	679.75
1103.855316	682.25
1104.415486	679.25
1104.975599	679.75
1105.535655	676.0
1106.095653	681.75
1106.655594	678.0
1107.215478	679.5
1107.775305	678.0
1108.335074	680.75
1108.894786	675.0
1109.45444	680.25
1110.014038	680.25
1110.573578	682.0
1111.133061	676.25
1111.692486	677.5
1112.251854	682.75
1112.811165	681.0
1113.370419	679.25
1113.929616	678.75
1114.488755	678.0
1115.047837	680.5
1115.606862	682.25
1116.16583	678.75
1116.72474	677.0
1117.283593	683.5
1117.842389	676.0
1118.401128	677.5
1118.959809	675.75
1119.518433	678.5
1120.077	675.75
1120.63551	678.5
1121.193963	677.5
1121.752358	678.5
1122.310697	677.5
1122.868978	678.75
1123.427202	676.75
1123.985368	678.0
1124.543478	683.25
1125.10153	679.5
1125.659526	681.25
1126.217464	679.5
1126.775345	677.0
1127.333168	681.75
1127.890935	677.75
1128.448644	682.25
1129.006297	680.75
1129.563892	680.5
1130.12143	679.75
1130.678911	676.75
1131.236335	677.0
1131.793701	677.75
1132.351011	680.0
1132.908263	676.25
1133.465458	680.5
1134.022597	676.0
1134.579678	676.5
1135.136702	681.0
1135.693669	679.25
1136.250578	677.75
1136.807431	677.75
1137.364227	674.25
1137.920965	677.75
1138.477647	675.75
1139.034271	681.75
1139.590839	679.0
1140.147349	678.75
1140.703802	677.0
1141.260198	676.5
1141.816537	677.75
1142.37282	682.75
1142.929045	680.75
1143.485213	680.75
1144.041323	680.5
1144.597377	681.5
1145.153374	678.5
1145.709314	679.5
1146.265197	679.25
1146.821023	678.25
1147.376792	681.25
1147.932503	677.0
1148.488158	675.25
1149.043756	676.5
1149.599297	678.5
1150.154781	679.5
1150.710207	676.5
1151.265577	676.25
1151.82089	679.0
1152.376146	678.0
1152.931345	678.0
1153.486487	674.25
1154.041572	682.5
1154.5966	677.0
1155.151571	680.0
1155.706485	682.75
1156.261342	680.5
1156.816142	679.5
1157.370885	677.5
1157.925572	681.75
1158.480201	680.75
1159.034774	679.75
1159.589289	679.25
1160.143748	679.5
1160.698149	679.75
1161.252494	680.0
1161.806782	686.0
1162.361013	681.0
1162.915187	679.0
1163.469304	680.5
1164.023364	675.5
1164.577368	680.75
1165.131314	680.75
1165.685204	677.0
1166.239036	675.25
1166.792812	677.0
1167.346531	679.5
1167.900193	680.0
1168.453798	678.25
1169.007347	676.25
1169.560838	674.5
1170.114273	680.5
1170.66765	679.25
1171.220971	681.25
1171.774235	678.0
1172.327443	680.0
1172.880593	681.5
1173.433687	681.0
1173.986723	678.75
1174.539703	678.75
1175.092626	682.25
1175.645493	678.25
1176.198302	676.5
1176.751055	678.75
1177.303751	680.0
1177.85639	681.25
1178.408972	676.0
1178.961498	675.75
1179.513966	678.75
1180.066378	678.5
1180.618733	678.25
1181.171032	680.0
1181.723273	679.25
1182.275458	677.0
1182.827586	684.0
1183.379657	679.25
1183.931672	680.0
1184.48363	675.0
1185.035531	678.75
1185.587375	678.25
1186.139162	676.5
1186.690893	677.25
1187.242567	675.5
1187.794184	675.75
1188.345745	679.25
1188.897249	682.25
1189.448696	679.25
1190.000086	680.25
1190.55142	679.75
1191.102697	676.75
1191.653918	678.75
1192.205081	674.5
1192.756188	678.25
1193.307238	698.5
1193.858232	674.5
1194.409169	676.5
1194.960049	683.0
1195.510872	681.25
1196.061639	674.75
1196.612349	680.0
1197.163003	675.0
1197.713599	677.25
1198.264139	680.5
1198.814623	678.5
1199.36505	677.0
1199.91542	676.25
1200.465734	677.75
1201.01599	681.5
1201.566191	675.75
1202.116334	675.5
1202.666421	679.5
1203.216452	680.5
1203.766425	681.0
1204.316343	676.75
1204.866203	675.25
1205.416007	677.5
1205.965754	681.75
1206.515445	679.25
1207.065079	679.0
1207.614657	677.0
1208.164177	679.5
1208.713642	679.0
1209.26305	681.5
1209.812401	678.5
1210.361695	676.75
1210.910933	678.75
1211.460115	674.75
1212.00924	683.75
1212.558308	679.5
1213.10732	682.25
1213.656275	680.5
1214.205174	678.25
1214.754016	679.75
1215.302801	677.5
1215.85153	679.25
1216.400203	680.0
1216.948819	676.75
1217.497378	679.25
1218.045881	679.5
1218.594327	679.5
1219.142717	680.25
1219.691051	679.25
1220.239327	679.5
1220.787548	678.5
1221.335712	678.75
1221.883819	680.25
1222.43187	679.25
1222.979864	680.5
1223.527802	677.0
1224.075683	680.0
1224.623508	680.0
1225.171277	679.5
1225.718989	678.75
1226.266644	682.25
1226.814243	677.0
1227.361786	677.75
1227.909272	681.25
1228.456702	680.0
1229.004075	679.5
1229.551392	676.75
1230.098652	679.25
1230.645856	674.75
1231.193003	683.0
1231.740094	682.75
1232.287129	674.5
1232.834107	682.0
1233.381029	680.25
1233.927894	676.75
1234.474703	677.5
1235.021455	679.5
1235.568151	679.5
1236.114791	680.5
1236.661374	678.75
1237.207901	680.0
1237.754372	675.0
1238.300786	682.0
1238.847144	676.5
1239.393445	682.0
1239.93969	679.5
1240.485879	682.0
1241.032011	676.0
1241.578087	677.25
1242.124106	677.5
1242.67007	675.5
1243.215976	678.75
1243.761827	676.75
1244.307621	680.0
1244.853359	677.5
1245.39904	679.75
1245.944665	680.25
1246.490234	677.75
1247.035746	679.25
1247.581203	678.0
1248.126602	682.0
1248.671946	682.0
1249.217233	684.75
1249.762464	678.0
1250.307638	680.75
1250.852757	683.0
1251.397819	677.75
1251.942824	677.75
1252.487774	684.25
1253.032667	679.0
1253.577503	679.75
1254.122284	675.5
1254.667008	682.0
1255.211676	679.0
1255.756288	682.75
1256.300843	680.5
1256.845342	677.75
1257.389785	675.0
1257.934172	683.25
1258.478502	677.0
1259.022776	680.75
1259.566994	683.5
1260.111156	695.0
1260.655261	676.5
1261.199311	678.5
1261.743304	677.5
1262.28724	681.0
1262.831121	678.0
1263.374945	679.5
1263.918713	682.25
1264.462425	689.0
1265.006081	698.0
1265.54968	717.5
1266.093223	693.25
1266.636711	687.0
1267.180141	683.75
1267.723516	681.75
1268.266835	682.25
1268.810097	684.25
1269.353303	679.75
1269.896453	677.5
1270.439547	679.25
1270.982584	680.0
1271.525566	680.0
1272.068491	679.25
1272.61136	673.75
1273.154173	679.75
1273.69693	677.75
1274.239631	683.0
1274.782275	682.25
1275.324864	681.75
1275.867396	680.5
1276.409872	681.75
1276.952292	677.25
1277.494656	681.25
1278.036964	678.5
1278.579215	681.0
1279.121411	680.5
1279.66355	676.25
1280.205634	680.0
1280.747661	677.25
1281.289632	682.0
1281.831547	681.25
1282.373406	682.0
1282.915209	682.25
1283.456955	688.75
1283.998646	698.5
1284.540281	725.0
1285.081859	839.25
1285.623381	1084.25
1286.164848	933.75
1286.706258	748.75
1287.247612	698.5
1287.788911	690.75
1288.330153	682.75
1288.871339	685.5
1289.412469	684.0
1289.953543	683.0
1290.494561	678.25
1291.035523	679.75
1291.576428	681.25
1292.117278	678.5
1292.658072	680.0
1293.19881	681.0
1293.739492	696.75
1294.820687	679.0
1295.361201	682.0
1295.901659	678.5
1296.442061	679.75
1296.982406	678.0
1297.522696	681.25
1298.06293	678.75
1298.603108	681.75
1299.143229	682.0
1299.683295	683.25
1300.223305	678.75
1300.763259	681.0
1301.303157	682.75
1301.842999	676.75
1302.382785	673.75
1302.922515	679.5
1303.462189	680.0
1304.001807	680.0
1304.541369	677.0
1305.080875	676.0
1305.620326	679.75
1306.15972	677.25
1306.699058	678.5
1307.238341	678.25
1307.777567	682.5
1308.316738	680.0
1308.855853	678.0
1309.394912	681.75
1309.933915	680.75
1310.472862	682.5
1311.011753	681.25
1311.550588	679.0
1312.089367	676.75
1312.62809	676.5
1313.166758	679.75
1313.70537	681.25
1314.243925	675.25
1314.782425	678.0
1315.320869	677.25
1315.859257	680.0
1316.397589	680.25
1316.935866	676.5
1317.474086	678.25
1318.012251	679.75
1318.55036	678.0
1319.088413	678.25
1319.62641	680.25
1320.164351	676.0
1320.702236	677.75
1321.240066	681.5
1321.777839	679.0
1322.315557	678.75
1322.853219	678.0
1323.390826	675.75
1323.928376	685.25
1324.465871	680.25
1325.003309	680.75
1325.540692	678.0
1326.07802	681.0
1326.615291	680.75
1327.152506	678.75
1327.689666	680.5
1328.22677	683.0
1328.763818	680.0
1329.300811	682.0
1329.837747	678.75
1330.374628	681.5
1330.911453	678.5
1331.448222	679.25
1331.984936	681.75
1332.521594	678.75
1333.058196	676.75
1333.594742	679.75
1334.131232	679.5
1334.667667	683.25
1335.204046	678.5
1335.740369	676.75
1336.276637	680.5
1336.812848	680.75
1337.349004	678.25
1337.885105	680.25
1338.421149	677.25
1338.957138	678.25
1339.493071	682.75
1340.028949	679.5
1340.56477	678.75
1341.100536	679.75
1341.636246	676.75
1342.171901	679.25
1342.7075	677.0
1343.243043	677.0
1343.77853	679.25
1344.313962	682.25
1344.849338	677.25
1345.384659	682.75
1345.919923	683.0
1346.455133	680.75
1346.990286	678.0
1347.525384	679.5
1348.060426	678.75
1348.595412	681.0
1349.130343	677.5
1349.665218	684.5
1350.200037	679.25
1350.734801	679.25
1351.269509	677.5
1351.804162	674.25
1352.338758	678.75
1352.8733	675.75
1353.407785	680.5
1353.942215	676.25
1354.476589	682.5
1355.010908	677.0
1355.545171	678.0
1356.079379	678.5
1356.61353	681.25
1357.147627	680.25
1357.681667	679.75
1358.215652	681.25
1358.749582	679.5
1359.283456	682.5
1359.817274	679.5
1360.351037	683.0
1360.884744	677.5
1361.418395	677.75
1361.951991	683.0
1362.485531	680.25
1363.019016	678.0
1363.552445	684.0
1364.085819	679.0
1364.619137	677.0
1365.1524	677.0
1365.685607	678.25
1366.218758	680.0
1366.751854	679.5
1367.284894	678.0
1367.817879	679.5
1368.350808	683.75
1368.883682	678.5
1369.4165	679.75
1369.949263	682.75
1370.48197	685.0
1371.014622	687.25
1371.547218	681.0
1372.079758	679.25
1372.612244	680.75
1373.144673	676.75
1373.677047	679.75
1374.209366	677.25
1374.741629	676.25
1375.273836	682.0
1375.805989	680.0
1376.338085	679.5
1376.870126	679.0
1377.402112	680.0
1377.934042	681.75
1378.465917	681.75
1378.997736	682.0
1379.5295	681.25
1380.061208	683.0
1380.592861	680.0
1381.124459	679.5
1381.656	679.75
1382.187487	681.25
1382.718918	678.5
1383.250294	682.75
1383.781614	683.5
1384.312879	683.25
1384.844088	683.25
1385.375242	686.75
1385.90634	684.75
1386.437383	685.25
1386.968371	693.75
1387.499303	712.25
1388.03018	769.25
1388.561001	1073.75
1389.091767	1337.0
1389.622478	925.75
1390.153133	732.75
1390.683733	695.75
1391.214277	689.0
1391.744766	686.5
1392.2752	687.75
1392.805578	685.75
1393.335901	677.25
1393.866168	681.0
1394.396381	681.0
1394.926537	680.5
1395.456639	683.0
1395.986685	682.75
1396.516675	682.75
1397.046611	677.75
1397.576491	680.5
1398.106315	679.25
1398.636084	680.25
1399.165798	680.25
1399.695457	679.75
1400.22506	680.5
1400.754608	676.0
1401.284101	682.25
1401.813538	676.5
1402.34292	682.5
1402.872247	681.5
1403.401518	680.75
1403.930734	681.25
1404.459895	680.75
1404.989	681.25
1405.51805	678.5
1406.047045	677.75
1406.575984	678.25
1407.104869	681.75
1407.633697	681.5
1408.162471	689.5
1408.691189	685.75
1409.219852	692.25
1409.74846	704.75
1410.277013	736.0
1410.80551	715.5
1411.333952	692.75
1411.862339	684.0
1412.39067	685.5
1412.918946	678.0
1413.447167	683.25
1413.975333	679.5
1414.503444	679.25
1415.031499	677.25
1415.559499	694.0
1416.087444	677.0
1416.615333	680.0
1417.143167	679.0
1417.670947	678.0
1418.19867	681.25
1418.726339	682.5
1419.253952	677.75
1419.781511	680.75
1420.309014	679.0
1420.836461	675.5
1421.363854	679.25
1421.891191	679.0
1422.418474	682.75
1422.945701	680.0
1423.472872	679.25
1423.999989	679.0
1424.52705	682.25
1425.054057	682.5
1425.581008	685.5
1426.107904	685.25
1426.634745	683.5
1427.16153	679.5
1427.688261	679.25
1428.214936	679.5
1428.741556	678.0
1429.268121	677.25
1429.794631	678.25
1430.321085	679.25
1430.847485	678.25
1431.373829	678.75
1431.900118	682.25
1432.426353	679.5
1432.952532	678.75
1433.478655	677.5
1434.004724	677.5
1434.530738	680.25
1435.056696	676.5
1435.5826	676.0
1436.108448	677.5
1436.634241	679.25
1437.159979	676.5
1437.685662	682.25
1438.21129	678.75
1438.736863	684.25
1439.262381	676.75
1439.787843	680.0
1440.313251	677.75
1440.838603	678.0
1441.3639	677.75
1441.889143	677.75
1442.41433	680.5
1442.939462	681.25
1443.464539	675.5
1443.989561	677.5
1444.514528	679.25
1445.03944	677.25
1445.564297	678.25
1446.089099	678.0
1446.613846	680.0
1447.138537	680.25
1447.663174	680.5
1448.187756	679.75
1448.712282	676.25
1449.236754	679.75
1449.761171	679.5
1450.285532	675.75
1450.809839	680.5
1451.33409	677.25
1451.858287	680.25
1452.382428	682.75
1452.906515	678.0
1453.430546	680.25
1453.954523	683.25
1454.478444	678.25
1455.002311	676.5
1455.526123	679.0
1456.049879	678.75
1456.573581	679.5
1457.097227	680.25
1457.620819	679.25
1458.144356	679.25
1458.667837	677.25
1459.191264	677.75
1459.714636	675.0
1460.237952	676.75
1460.761214	678.75
1461.284421	680.5
1461.807573	678.25
1462.33067	679.5
1462.853712	677.25
1463.376699	682.0
1463.899632	681.75
1464.422509	681.75
1464.945331	676.25
1465.468099	673.75
1465.990811	678.25
1466.513469	675.75
1467.036071	680.0
1467.558619	678.25
1468.081112	678.0
1468.60355	678.0
1469.125933	678.75
1469.648261	674.0
1470.170534	677.0
1470.692752	678.75
1471.214916	676.25
1471.737024	678.75
1472.259078	684.75
1472.781077	678.75
1473.303021	678.25
1473.82491	677.0
1474.346744	683.0
1474.868523	677.25
1475.390248	679.0
1475.911917	679.75
1476.433532	678.0
1476.955092	679.0
1477.476597	677.0
1477.998047	678.0
1478.519442	677.5
1479.040783	676.5
1479.562068	678.0
1480.083299	677.75
1480.604475	675.25
1481.125596	677.0
1481.646663	678.5
1482.167674	678.0
1482.688631	678.5
1483.209533	677.5
1483.73038	676.75
1484.251172	678.25
1484.771909	679.5
1485.292592	676.25
1485.81322	679.25
1486.333793	680.0
1486.854311	681.0
1487.374775	681.25
1487.895183	676.5
1488.415537	676.0
1488.935836	673.75
1489.456081	677.75
1489.97627	674.25
1490.496405	678.5
1491.016485	675.0
1491.536511	676.25
1492.056481	680.0
1492.576397	676.75
1493.096258	679.75
1493.616064	681.25
1494.135816	675.75
1494.655513	676.75
1495.175155	678.75
1495.694742	679.75
1496.214274	678.0
1496.733752	678.5
1497.253175	678.25
1497.772544	677.5
1498.291858	677.5
1498.811116	680.25
1499.330321	679.5
1499.84947	689.0
1500.368565	677.5
1500.887605	679.5
1501.406591	678.75
1501.925521	674.75
1502.444397	677.25
1502.963219	675.75
1503.481985	673.5
1504.000697	676.0
1504.519355	677.25
1505.037957	679.25
1505.556505	677.0
1506.074999	679.75
1506.593437	679.25
1507.111821	680.25
1507.63015	680.5
1508.148425	677.0
1508.666645	676.5
1509.18481	676.5
1509.702921	674.5
1510.220977	677.25
1510.738979	686.0
1511.256925	678.5
1511.774817	680.25
1512.292655	675.5
1512.810438	675.5
1513.328166	679.5
1513.84584	679.75
1514.363459	676.75
1514.881023	678.5
1515.398533	676.0
1515.915988	677.75
1516.433389	678.0
1516.950734	674.75
1517.468026	678.25
1517.985263	673.5
1518.502445	678.5
1519.019572	677.0
1519.536645	678.5
1520.053664	678.5
1520.570628	678.0
1521.087537	678.75
1521.604392	679.5
1522.121192	675.25
1522.637937	676.75
1523.154628	678.0
1523.671265	680.5
1524.187847	678.25
1524.704374	678.0
1525.220847	680.5
1525.737265	684.0
1526.253629	676.75
1526.769938	679.5
1527.286192	676.0
1527.802392	680.0
1528.318538	676.5
1528.834629	675.0
1529.350666	679.25
1529.866648	677.75
1530.382575	674.5
1530.898448	675.5
1531.414266	676.25
1531.93003	677.25
1532.44574	676.5
1532.961395	675.75
1533.476995	676.5
1533.992541	675.75
1534.508033	680.5
1535.02347	679.5
1535.538852	682.5
1536.05418	680.75
1536.569454	680.0
1537.084673	678.0
1537.599837	671.25
1538.114947	678.25
1538.630003	679.0
1539.145004	677.5
1539.659951	677.75
1540.174843	679.5
1540.689681	677.5
1541.204465	678.25
1541.719194	679.25
1542.233868	677.0
1542.748488	675.0
1543.263054	680.75
1543.777565	682.5
1544.292022	675.25
1544.806424	677.0
1545.320772	676.25
1545.835066	678.0
1546.349305	679.0
1546.863489	675.25
1547.37762	677.25
1547.891696	680.5
1548.405717	679.75
1548.919684	676.75
1549.433597	678.5
1549.947455	682.5
1550.461259	675.25
1550.975009	677.0
1551.488704	676.0
1552.002345	676.25
1552.515931	678.5
1553.029463	676.25
1553.542941	674.75
1554.056364	677.75
1554.569733	680.5
1555.083048	674.5
1555.596308	677.75
1556.109514	675.5
1556.622665	675.25
1557.135762	676.5
1557.648805	679.5
1558.161794	679.0
1558.674728	677.75
1559.187608	676.75
1559.700433	678.0
1560.213205	677.25
1560.725921	682.0
1561.238584	684.75
1561.751192	673.25
1562.263746	677.5
1562.776246	679.0
1563.288691	674.0
1563.801082	678.75
1564.313419	679.25
1564.825701	676.75
1565.337929	677.5
1565.850103	673.5
1566.362223	681.25
1566.874288	676.75
1567.386299	677.0
1567.898256	679.0
1568.410158	679.75
1568.922007	680.75
1569.4338	676.75
1569.94554	675.5
1570.457226	678.25
1570.968857	676.25
1571.480434	677.5
1571.991956	678.25
1572.503425	677.5
1573.014839	674.0
1573.526199	680.0
1574.037505	680.75
1574.548756	675.25
1575.059953	677.25
1575.571096	673.5
1576.082185	680.0
1576.59322	680.25
1577.1042	677.0
1577.615126	680.0
1578.125998	682.5
1578.636816	676.75
1579.14758	676.5
1579.658289	677.75
1580.168944	679.0
1580.679545	677.75
1581.190092	676.75
1581.700585	676.25
1582.211023	679.25
1582.721407	678.5
1583.231737	676.75
1583.742013	676.5
1584.252235	679.5
1584.762403	678.5
1585.272516	678.25
1585.782575	677.25
1586.292581	675.5
1586.802532	680.25
1587.312428	677.0
1587.822271	676.0
1588.33206	681.25
1588.841794	677.0
1589.351474	672.25
1589.8611	677.75
1590.370672	680.25
1590.88019	681.5
1591.389654	679.75
1591.899064	676.5
1592.408419	677.25
