1042.452273	714.5
1043.018714	716.0
1043.585098	706.5
1044.151424	707.0
1044.717692	708.25
1045.283903	708.25
1045.850056	698.75
1046.416151	702.25
1046.982188	702.25
1047.548167	704.0
1048.114089	700.0
1048.679953	697.5
1049.24576	699.0
1049.811509	700.5
1050.3772	697.25
1050.942833	699.25
1051.508408	695.5
1052.073926	687.75
1052.639387	688.25
1053.204789	693.75
1053.770134	687.0
1054.335421	688.25
1054.900651	690.0
1055.465823	689.75
1056.030937	685.25
1056.595993	690.0
1057.160992	688.0
1057.725934	690.5
1058.290817	685.0
1058.855643	689.75
1059.420411	684.0
1059.985122	689.5
1060.549775	683.75
1061.114371	686.0
1061.678908	684.75
1062.243389	684.75
1062.807811	683.5
1063.372176	684.25
1063.936483	683.5
1064.500733	681.0
1065.064925	685.0
1065.62906	686.0
1066.193137	686.0
1066.757156	685.0
1067.321118	683.0
1067.885022	681.75
1068.448869	683.25
1069.012658	684.25
1069.57639	685.25
1070.140063	692.5
1070.70368	689.5
1071.267239	682.0
1071.83074	682.0
1072.394184	683.0
1072.95757	683.5
1073.520899	685.5
1074.08417	683.75
1074.647383	680.75
1075.21054	682.5
1075.773638	682.0
1076.336679	682.25
1076.899663	681.5
1077.462589	681.75
1078.025457	678.5
1078.588268	684.0
1079.151022	679.75
1079.713718	681.25
1080.276356	683.25
1080.838937	683.75
1081.401461	681.5
1081.963927	681.75
1082.526336	682.75
1083.088687	684.75
1083.650981	682.0
1084.213217	683.25
1084.775396	678.75
1085.337517	684.5
1085.899581	681.0
1086.461587	684.5
1087.023536	679.5
1087.585428	682.0
1088.147262	679.75
1088.709039	683.5
1089.270758	680.5
1089.83242	679.25
1090.394024	680.75
1090.955571	680.75
1091.517061	682.0
1092.078493	679.0
1092.639868	682.5
1093.201185	679.0
1093.762445	683.75
1094.323648	678.5
1094.884793	679.5
1095.445881	680.0
1096.006911	681.0
1096.567884	680.25
1097.1288	688.25
1097.689659	680.5
1098.25046	678.5
1098.811203	679.75
1099.37189	682.0
1099.932518	682.0
1100.49309	679.75
1101.053604	679.0
1101.614061	676.75
1102.174461	679.0
1102.734803	681.75
1103.295088	680.5
1103.855316	681.25
1104.415486	676.5
1104.975599	678.75
1105.535655	679.0
1106.095653	678.25
1106.655594	678.5
1107.215478	682.75
1107.775305	682.25
1108.335074	677.0
1108.894786	683.25
1109.45444	675.25
1110.014038	678.5
1110.573578	681.75
1111.133061	679.75
1111.692486	680.25
1112.251854	682.25
1112.811165	678.75
1113.370419	679.75
1113.929616	681.75
1114.488755	678.0
1115.047837	676.5
1115.606862	680.0
1116.16583	680.75
1116.72474	674.75
1117.283593	680.75
1117.842389	680.75
1118.401128	676.25
1118.959809	680.0
1119.518433	677.5
1120.077	684.25
1120.63551	682.0
1121.193963	676.25
1121.752358	678.75
1122.310697	679.0
1122.868978	681.5
1123.427202	681.0
1123.985368	679.25
1124.543478	680.0
1125.10153	677.0
1125.659526	678.0
1126.217464	678.0
1126.775345	680.5
1127.333168	677.25
1127.890935	679.5
1128.448644	680.25
1129.006297	679.75
1129.563892	677.0
1130.12143	680.5
1130.678911	680.0
1131.236335	678.25
1131.793701	674.75
1132.351011	676.25
1132.908263	678.5
1133.465458	681.0
1134.022597	675.5
1134.579678	677.5
1135.136702	681.0
1135.693669	679.5
1136.250578	677.25
1136.807431	678.25
1137.364227	679.75
1137.920965	677.5
1138.477647	678.75
1139.034271	680.75
1139.590839	674.75
1140.147349	680.75
1140.703802	676.75
1141.260198	680.0
1141.816537	674.25
1142.37282	680.0
1142.929045	676.25
1143.485213	678.5
1144.041323	677.0
1144.597377	681.25
1145.153374	679.25
1145.709314	675.5
1146.265197	679.5
1146.821023	677.25
1147.376792	680.75
1147.932503	675.5
1148.488158	676.75
1149.043756	678.75
1149.599297	681.25
1150.154781	676.75
1150.710207	675.5
1151.265577	677.0
1151.82089	679.25
1152.376146	678.75
1152.931345	679.0
1153.486487	677.75
1154.041572	677.25
1154.5966	677.25
1155.151571	678.25
1155.706485	676.5
1156.261342	680.25
1156.816142	677.5
1157.370885	679.0
1157.925572	679.5
1158.480201	677.75
1159.034774	676.0
1159.589289	676.5
1160.143748	678.0
1160.698149	679.25
1161.252494	677.5
1161.806782	676.0
1162.361013	679.0
1162.915187	681.5
1163.469304	676.75
1164.023364	679.0
1164.577368	679.0
1165.131314	677.75
1165.685204	678.0
1166.239036	674.0
1166.792812	682.75
1167.346531	682.25
1167.900193	683.25
1168.453798	676.25
1169.007347	676.75
1169.560838	675.5
1170.114273	677.75
1170.66765	676.5
1171.220971	681.5
1171.774235	679.5
1172.327443	677.5
1172.880593	677.5
1173.433687	677.75
1173.986723	678.75
1174.539703	676.25
1175.092626	678.0
1175.645493	678.0
1176.198302	681.0
1176.751055	680.5
1177.303751	680.25
1177.85639	676.75
1178.408972	679.5
1178.961498	677.75
1179.513966	678.5
1180.066378	675.0
1180.618733	678.25
1181.171032	679.0
1181.723273	678.25
1182.275458	682.75
1182.827586	676.5
1183.379657	678.0
1183.931672	679.75
1184.48363	677.75
1185.035531	679.25
1185.587375	675.75
1186.139162	676.5
1186.690893	678.25
1187.242567	678.25
1187.794184	681.25
1188.345745	679.75
1188.897249	677.25
1189.448696	677.25
1190.000086	679.5
1190.55142	681.25
1191.102697	676.75
1191.653918	678.25
1192.205081	677.75
1192.756188	677.75
1193.307238	696.25
1193.858232	677.75
1194.409169	679.5
1194.960049	677.5
1195.510872	679.25
1196.061639	675.5
1196.612349	677.75
1197.163003	675.5
1197.713599	676.5
1198.264139	679.75
1198.814623	679.0
1199.36505	678.5
1199.91542	680.25
1200.465734	679.0
1201.01599	679.25
1201.566191	675.25
1202.116334	678.75
1202.666421	678.75
1203.216452	676.25
1203.766425	675.75
1204.316343	679.5
1204.866203	676.75
1205.416007	676.75
1205.965754	675.5
1206.515445	676.5
1207.065079	681.25
1207.614657	677.0
1208.164177	677.75
1208.713642	677.0
1209.26305	680.75
1209.812401	680.5
1210.361695	677.0
1210.910933	672.75
1211.460115	672.0
1212.00924	676.75
1212.558308	674.75
1213.10732	681.25
1213.656275	677.0
1214.205174	679.25
1214.754016	678.75
1215.302801	678.25
1215.85153	677.25
1216.400203	677.75
1216.948819	679.5
1217.497378	676.75
1218.045881	682.25
1218.594327	674.25
1219.142717	681.0
1219.691051	679.5
1220.239327	677.75
1220.787548	679.5
1221.335712	679.75
1221.883819	675.0
1222.43187	678.0
1222.979864	677.75
1223.527802	677.25
1224.075683	677.5
1224.623508	681.25
1225.171277	674.25
1225.718989	676.25
1226.266644	680.75
1226.814243	680.5
1227.361786	675.5
1227.909272	677.5
1228.456702	675.75
1229.004075	675.5
1229.551392	675.25
1230.098652	676.5
1230.645856	678.5
1231.193003	677.25
1231.740094	680.0
1232.287129	678.5
1232.834107	681.25
1233.381029	671.75
1233.927894	677.5
1234.474703	674.75
1235.021455	679.25
1235.568151	677.75
1236.114791	678.25
1236.661374	677.5
1237.207901	680.5
1237.754372	678.25
1238.300786	680.75
1238.847144	676.25
1239.393445	674.75
1239.93969	677.5
1240.485879	678.75
1241.032011	675.0
1241.578087	679.75
1242.124106	676.25
1242.67007	675.5
1243.215976	680.5
1243.761827	677.0
1244.307621	680.0
1244.853359	678.25
1245.39904	674.75
1245.944665	677.25
1246.490234	677.0
1247.035746	681.75
1247.581203	677.25
1248.126602	674.25
1248.671946	679.0
1249.217233	679.5
1249.762464	675.0
1250.307638	676.25
1250.852757	679.5
1251.397819	677.25
1251.942824	676.75
1252.487774	679.0
1253.032667	676.5
1253.577503	676.5
1254.122284	679.0
1254.667008	677.25
1255.211676	677.5
1255.756288	677.25
1256.300843	676.75
1256.845342	679.25
1257.389785	679.25
1257.934172	676.75
1258.478502	675.75
1259.022776	674.0
1259.566994	679.0
1260.111156	692.0
1260.655261	681.5
1261.199311	675.25
1261.743304	678.5
1262.28724	678.0
1262.831121	679.0
1263.374945	680.25
1263.918713	677.0
1264.462425	678.75
1265.006081	680.0
1265.54968	687.75
1266.093223	685.5
1266.636711	678.25
1267.180141	681.25
1267.723516	679.0
1268.266835	679.5
1268.810097	679.0
1269.353303	676.0
1269.896453	681.0
1270.439547	677.25
1270.982584	678.25
1271.525566	677.5
1272.068491	678.5
1272.61136	680.25
1273.154173	674.0
1273.69693	678.5
1274.239631	674.75
1274.782275	678.25
1275.324864	679.5
1275.867396	674.25
1276.409872	678.25
1276.952292	677.5
1277.494656	679.5
1278.036964	675.5
1278.579215	679.0
1279.121411	676.0
1279.66355	675.5
1280.205634	677.0
1280.747661	682.0
1281.289632	680.25
1281.831547	675.25
1282.373406	677.5
1282.915209	674.0
1283.456955	680.5
1283.998646	673.75
1284.540281	679.0
1285.081859	686.25
1285.623381	727.0
1286.164848	814.0
1286.706258	735.25
1287.247612	688.0
1287.788911	682.25
1288.330153	681.0
1288.871339	681.25
1289.412469	679.0
1289.953543	674.75
1290.494561	678.25
1291.035523	675.5
1291.576428	677.0
1292.117278	677.75
1292.658072	677.5
1293.19881	678.5
1293.739492	676.75
1294.280118	678.5
1294.820687	677.0
1295.361201	680.75
1295.901659	676.75
1296.442061	678.25
1296.982406	677.25
1297.522696	676.5
1298.06293	676.75
1298.603108	679.0
1299.143229	674.75
1299.683295	678.75
1300.223305	677.25
1300.763259	675.0
1301.303157	675.5
1301.842999	677.75
1302.382785	677.25
1302.922515	675.0
1303.462189	677.75
1304.001807	682.25
1304.541369	675.25
1305.080875	676.5
1305.620326	676.25
1306.15972	678.5
1306.699058	680.25
1307.238341	679.75
1307.777567	679.0
1308.316738	673.5
1308.855853	676.5
1309.394912	676.75
1309.933915	679.5
1310.472862	674.0
1311.011753	682.0
1311.550588	675.25
1312.089367	673.5
1312.62809	677.25
1313.166758	675.75
1313.70537	679.25
1314.243925	678.25
1314.782425	674.25
1315.320869	676.5
1315.859257	677.5
1316.397589	676.25
1316.935866	678.25
1317.474086	677.25
1318.012251	678.25
1318.55036	675.5
1319.088413	677.5
1319.62641	676.75
1320.164351	677.5
1320.702236	678.25
1321.240066	677.5
1321.777839	675.75
1322.315557	678.5
1322.853219	678.25
1323.390826	676.0
1323.928376	682.0
1324.465871	677.25
1325.003309	674.5
1325.540692	675.5
1326.07802	677.25
1326.615291	676.75
1327.152506	675.75
1327.689666	680.5
1328.22677	677.0
1328.763818	671.75
1329.300811	679.0
1329.837747	676.75
1330.374628	682.25
1330.911453	676.5
1331.448222	673.0
1331.984936	678.5
1332.521594	673.0
1333.058196	675.25
1333.594742	680.25
1334.131232	679.5
1334.667667	673.0
1335.204046	676.25
1335.740369	676.75
1336.276637	674.5
1336.812848	679.25
1337.349004	675.75
1337.885105	679.0
1338.421149	674.5
1338.957138	676.25
1339.493071	677.0
1340.028949	676.25
1340.56477	676.0
1341.100536	674.25
1341.636246	678.0
1342.171901	676.25
1342.7075	674.25
1343.243043	679.0
1343.77853	678.25
1344.313962	676.25
1344.849338	674.0
1345.384659	678.25
1345.919923	675.75
1346.455133	677.5
1346.990286	677.75
1347.525384	678.75
1348.060426	679.25
1348.595412	677.5
1349.130343	673.5
1349.665218	675.75
1350.200037	675.25
1350.734801	676.75
1351.269509	674.75
1351.804162	676.75
1352.338758	677.0
1352.8733	677.0
1353.407785	678.25
1353.942215	679.5
1354.476589	677.25
1355.010908	677.25
1355.545171	674.0
1356.079379	678.0
1356.61353	679.0
1357.147627	678.75
1357.681667	677.5
1358.215652	676.75
1358.749582	675.75
1359.283456	680.5
1359.817274	676.0
1360.351037	677.25
1360.884744	676.5
1361.418395	675.75
1361.951991	677.0
1362.485531	673.0
1363.019016	677.25
1363.552445	676.5
1364.085819	677.25
1364.619137	680.75
1365.1524	677.25
1365.685607	677.25
1366.218758	676.25
1366.751854	675.75
1367.284894	677.75
1367.817879	678.25
1368.350808	676.75
1368.883682	680.5
1369.4165	674.75
1369.949263	673.0
1370.48197	674.5
1371.014622	678.5
1371.547218	678.25
1372.079758	677.0
1372.612244	677.25
1373.144673	674.0
1373.677047	676.75
1374.209366	677.0
1374.741629	678.0
1375.273836	678.25
1375.805989	676.75
1376.338085	679.25
1376.870126	671.5
1377.402112	677.75
1377.934042	676.75
1378.465917	677.75
1378.997736	677.75
1379.5295	680.25
1380.061208	676.25
1380.592861	677.5
1381.124459	676.25
1381.656	675.75
1382.187487	675.0
1382.718918	675.0
1383.250294	676.25
1383.781614	679.0
1384.312879	675.25
1384.844088	675.75
1385.375242	676.0
1385.90634	677.0
1386.437383	678.75
1386.968371	680.5
1387.499303	682.5
1388.03018	682.25
1388.561001	713.75
1389.091767	867.0
1389.622478	818.75
1390.153133	698.0
1390.683733	681.25
1391.214277	679.25
1391.744766	679.25
1392.2752	677.25
1392.805578	674.0
1393.335901	675.75
1393.866168	677.0
1394.396381	678.0
1394.926537	678.75
1395.456639	676.75
1395.986685	677.25
1396.516675	681.75
1397.046611	676.25
1397.576491	676.75
1398.106315	679.25
1398.636084	675.75
1399.165798	678.0
1399.695457	674.5
1400.22506	676.5
1400.754608	677.25
1401.284101	677.0
1401.813538	678.75
1402.34292	680.25
1402.872247	674.5
1403.401518	675.25
1403.930734	675.25
1404.459895	676.75
1404.989	679.25
1405.51805	675.75
1406.047045	676.75
1406.575984	676.0
1407.104869	675.75
1407.633697	676.75
1408.162471	677.75
1408.691189	676.25
1409.219852	675.5
1409.74846	682.0
1410.277013	693.25
1410.80551	694.25
1411.333952	680.25
1411.862339	679.0
1412.39067	677.5
1412.918946	680.5
1413.447167	677.5
1413.975333	676.75
1414.503444	679.25
1415.031499	678.0
1415.559499	688.75
1416.087444	679.5
1416.615333	677.25
1417.143167	676.75
1417.670947	676.5
1418.19867	674.5
1418.726339	678.25
1419.253952	677.0
1419.781511	677.0
1420.309014	675.25
1420.836461	674.0
1421.363854	678.0
1421.891191	674.25
1422.418474	678.75
1422.945701	674.75
1423.472872	677.0
1423.999989	677.25
1424.52705	678.0
1425.054057	678.0
1425.581008	677.75
1426.107904	676.0
1426.634745	678.75
1427.16153	680.25
1427.688261	678.0
1428.214936	677.0
1428.741556	674.0
1429.268121	678.0
1429.794631	674.25
1430.321085	678.25
1430.847485	674.25
1431.373829	674.0
1431.900118	675.75
1432.426353	678.5
1432.952532	679.25
1433.478655	673.75
1434.004724	674.5
1434.530738	678.75
1435.056696	676.75
1435.5826	672.0
1436.108448	678.75
1436.634241	673.75
1437.159979	677.75
1437.685662	677.5
1438.21129	674.5
1438.736863	673.5
1439.262381	674.5
1439.787843	678.25
1440.313251	673.5
1440.838603	675.5
1441.3639	675.5
1441.889143	677.25
1442.41433	677.5
1442.939462	679.5
1443.464539	677.5
1443.989561	680.0
1444.514528	676.5
1445.03944	676.25
1445.564297	677.25
1446.089099	674.25
1446.613846	679.75
1447.138537	678.0
1447.663174	678.0
1448.187756	676.75
1448.712282	678.25
1449.236754	678.25
1449.761171	678.75
1450.285532	676.75
1450.809839	675.25
1451.33409	678.75
1451.858287	673.25
1452.382428	674.5
1452.906515	676.25
1453.430546	678.25
1453.954523	679.5
1454.478444	676.25
1455.002311	680.0
1455.526123	675.75
1456.049879	676.75
1456.573581	675.25
1457.097227	673.5
1457.620819	677.25
1458.144356	676.5
1458.667837	677.75
1459.191264	676.25
1459.714636	673.5
1460.237952	676.75
1460.761214	675.25
1461.284421	677.0
1461.807573	678.75
1462.33067	677.5
1462.853712	687.0
1463.376699	707.25
1463.899632	684.25
1464.422509	675.75
1464.945331	675.25
1465.468099	677.0
1465.990811	678.5
1466.513469	676.5
1467.036071	676.5
1467.558619	674.75
1468.081112	674.25
1468.60355	676.0
1469.125933	676.75
1469.648261	676.75
1470.170534	677.25
1470.692752	676.75
1471.214916	679.5
1471.737024	678.5
1472.259078	677.5
1472.781077	676.5
1473.303021	677.0
1473.82491	677.5
1474.346744	675.75
1474.868523	677.75
1475.390248	674.0
1475.911917	675.5
1476.433532	680.75
1476.955092	675.25
1477.476597	676.5
1477.998047	678.25
1478.519442	676.25
1479.040783	677.25
1479.562068	678.25
1480.083299	676.75
1480.604475	676.75
1481.125596	673.5
1481.646663	678.25
1482.167674	681.0
1482.688631	676.25
1483.209533	674.75
1483.73038	675.25
1484.251172	678.5
1484.771909	679.5
1485.292592	674.75
1485.81322	676.75
1486.333793	676.5
1486.854311	676.5
1487.374775	678.5
1487.895183	675.75
1488.415537	674.5
1488.935836	675.75
1489.456081	674.5
1489.97627	677.5
1490.496405	677.25
1491.016485	674.0
1491.536511	674.0
1492.056481	676.0
1492.576397	673.75
1493.096258	677.0
1493.616064	675.75
1494.135816	673.25
1494.655513	676.5
1495.175155	678.25
1495.694742	675.0
1496.214274	677.5
1496.733752	676.5
1497.253175	675.5
1497.772544	674.75
1498.291858	675.5
1498.811116	679.5
1499.330321	677.75
1499.84947	687.75
1500.368565	676.0
1500.887605	679.25
1501.406591	678.5
1501.925521	675.0
1502.444397	679.75
1502.963219	672.75
1503.481985	674.5
1504.000697	676.5
1504.519355	672.0
1505.037957	674.75
1505.556505	678.25
1506.074999	680.25
1506.593437	677.0
1507.111821	676.0
1507.63015	677.0
1508.148425	678.25
1508.666645	676.25
1509.18481	675.5
1509.702921	676.25
1510.220977	675.25
1510.738979	686.0
1511.256925	676.25
1511.774817	672.5
1512.292655	676.5
1512.810438	674.75
1513.328166	676.75
1513.84584	678.25
1514.363459	675.0
1514.881023	675.0
1515.398533	673.0
1515.915988	682.5
1516.433389	676.25
1516.950734	674.5
1517.468026	674.75
1517.985263	677.5
1518.502445	676.25
1519.019572	675.25
1519.536645	675.75
1520.053664	676.75
1520.570628	672.5
1521.087537	675.75
1521.604392	679.75
1522.121192	678.75
1522.637937	677.25
1523.154628	675.5
1523.671265	675.25
1524.187847	680.0
1524.704374	678.75
1525.220847	677.25
1525.737265	681.5
1526.253629	702.25
1526.769938	691.5
1527.286192	677.75
1527.802392	676.0
1528.318538	676.75
1528.834629	674.25
1529.350666	678.25
1529.866648	680.25
1530.382575	674.0
1530.898448	676.25
1531.414266	676.25
1531.93003	677.5
1532.44574	677.0
1532.961395	676.5
1533.476995	674.75
1533.992541	679.0
1534.508033	673.75
1535.02347	677.0
1535.538852	680.0
1536.05418	675.75
1536.569454	673.5
1537.084673	679.0
1537.599837	676.25
1538.114947	679.75
1538.630003	674.5
1539.145004	674.0
1539.659951	678.0
1540.174843	673.0
1540.689681	673.75
1541.204465	676.0
1541.719194	677.0
1542.233868	677.0
1542.748488	676.5
1543.263054	675.0
1543.777565	677.5
1544.292022	677.5
1544.806424	675.25
1545.320772	675.25
1545.835066	674.0
1546.349305	676.75
1546.863489	678.25
1547.37762	678.25
1547.891696	676.5
1548.405717	676.75
1548.919684	675.75
1549.433597	675.0
1549.947455	678.0
1550.461259	677.25
1550.975009	678.5
1551.488704	681.75
1552.002345	677.5
1552.515931	678.5
1553.029463	676.25
1553.542941	679.0
1554.056364	677.0
1554.569733	680.75
1555.083048	679.0
1555.596308	679.5
1556.109514	681.0
1556.622665	680.75
1557.135762	681.0
1557.648805	677.75
1558.161794	680.75
1558.674728	676.0
1559.187608	676.25
1559.700433	677.75
1560.213205	675.75
1560.725921	676.0
1561.238584	678.0
1561.751192	678.5
1562.263746	676.0
1562.776246	677.25
1563.288691	677.0
1563.801082	680.75
1564.313419	678.25
1564.825701	675.25
1565.337929	683.25
1565.850103	682.75
1566.362223	680.0
1566.874288	682.5
1567.386299	683.75
1567.898256	679.5
1568.410158	683.75
1568.922007	681.0
1569.4338	675.25
1569.94554	677.5
1570.457226	680.25
1570.968857	680.25
1571.480434	681.75
1571.991956	675.75
1572.503425	676.75
1573.014839	676.75
1573.526199	679.25
1574.037505	674.75
1574.548756	676.0
1575.059953	679.25
1575.571096	677.5
1576.082185	675.5
1576.59322	680.75
1577.1042	676.25
1577.615126	679.25
1578.125998	679.75
1578.636816	676.5
1579.14758	677.0
1580.679545	678.5
1581.190092	679.0
1581.700585	676.25
1582.211023	679.0
1582.721407	680.75
1583.231737	677.0
1583.742013	676.0
1584.252235	676.0
1584.762403	675.25
1585.272516	677.5
1585.782575	675.75
1586.292581	677.0
1586.802532	677.75
1587.312428	679.5
1587.822271	676.25
1588.33206	677.75
1588.841794	678.5
1589.351474	679.25
1589.8611	676.0
1590.370672	677.0
1590.88019	677.5
1591.389654	676.75
1591.899064	676.25
1592.408419	675.25
