1042.452273	724.75
1043.018714	721.25
1043.585098	720.75
1044.151424	723.5
1044.717692	716.25
1045.283903	713.5
1045.850056	710.0
1046.416151	711.5
1046.982188	714.0
1047.548167	708.75
1048.114089	709.5
1048.679953	709.5
1049.24576	700.75
1049.811509	705.5
1050.3772	704.25
1050.942833	702.5
1051.508408	702.25
1052.073926	702.75
1052.639387	701.75
1053.204789	702.25
1053.770134	697.0
1054.335421	699.0
1054.900651	700.0
1055.465823	698.25
1056.030937	694.75
1056.595993	696.0
1057.160992	695.5
1057.725934	696.25
1058.290817	694.5
1058.855643	691.5
1059.420411	692.0
1059.985122	696.75
1060.549775	692.75
1061.114371	697.75
1061.678908	692.5
1062.243389	693.5
1062.807811	693.75
1063.372176	693.75
1063.936483	695.75
1064.500733	693.0
1065.064925	690.75
1065.62906	694.0
1066.193137	689.75
1066.757156	691.5
1067.321118	687.25
1067.885022	696.5
1068.448869	692.5
1069.012658	691.5
1069.57639	693.0
1070.140063	697.75
1070.70368	692.25
1071.267239	689.5
1071.83074	689.75
1072.394184	692.25
1072.95757	687.75
1073.520899	689.75
1074.08417	690.25
1074.647383	691.0
1075.21054	687.75
1075.773638	689.25
1076.336679	690.75
1076.899663	691.75
1077.462589	691.0
1078.025457	691.75
1078.588268	684.75
1079.151022	685.75
1079.713718	691.75
1080.276356	691.25
1080.838937	692.25
1081.401461	690.75
1081.963927	689.75
1082.526336	696.0
1083.088687	687.5
1083.650981	692.75
1084.213217	690.0
1084.775396	689.25
1085.337517	691.25
1085.899581	691.25
1086.461587	686.75
1087.023536	686.5
1087.585428	691.0
1088.147262	686.25
1088.709039	689.5
1089.270758	689.0
1089.83242	687.25
1090.394024	689.0
1090.955571	684.0
1091.517061	691.5
1092.078493	689.5
1092.639868	683.75
1093.201185	689.25
1093.762445	690.25
1094.323648	688.25
1094.884793	689.5
1095.445881	689.75
1096.006911	688.0
1096.567884	687.75
1097.1288	695.0
1097.689659	686.75
1098.25046	690.0
1098.811203	685.25
1099.37189	687.5
1099.932518	688.75
1100.49309	683.75
1101.053604	686.5
1101.614061	688.5
1102.174461	684.75
1102.734803	687.0
1103.295088	691.75
1103.855316	685.75
1104.415486	687.0
1104.975599	688.5
1105.535655	688.75
1106.095653	685.0
1106.655594	688.25
1107.215478	685.5
1107.775305	685.25
1108.335074	690.75
1108.894786	685.0
1109.45444	685.75
1110.014038	683.25
1110.573578	689.25
1111.133061	685.25
1111.692486	686.25
1112.251854	688.0
1112.811165	690.75
1113.370419	682.5
1113.929616	685.25
1114.488755	688.75
1115.047837	683.25
1115.606862	689.75
1116.16583	690.5
1116.72474	688.25
1117.283593	691.25
1117.842389	685.5
1118.401128	681.25
1118.959809	688.75
1119.518433	684.0
1120.077	686.5
1120.63551	687.25
1121.193963	687.0
1121.752358	687.0
1122.310697	687.25
1122.868978	682.25
1123.427202	688.75
1123.985368	683.0
1124.543478	689.25
1125.10153	682.25
1125.659526	686.25
1126.217464	685.25
1126.775345	686.75
1127.333168	683.25
1127.890935	687.0
1128.448644	683.75
1129.006297	685.5
1129.563892	688.0
1130.12143	685.75
1130.678911	680.75
1131.236335	686.5
1131.793701	687.0
1132.351011	685.0
1132.908263	684.75
1133.465458	684.5
1134.022597	688.75
1134.579678	686.5
1135.136702	688.5
1135.693669	681.0
1136.250578	681.5
1136.807431	684.25
1137.364227	690.0
1137.920965	684.0
1138.477647	683.0
1139.034271	684.25
1139.590839	689.75
1140.147349	681.75
1140.703802	686.0
1141.260198	685.5
1141.816537	687.5
1142.37282	685.0
1142.929045	686.5
1143.485213	687.25
1144.041323	690.75
1144.597377	692.5
1145.153374	687.5
1145.709314	683.25
1146.265197	688.5
1146.821023	685.25
1147.376792	686.5
1147.932503	684.25
1148.488158	683.25
1149.043756	686.0
1149.599297	688.75
1150.154781	679.0
1150.710207	684.0
1151.265577	683.25
1151.82089	686.25
1152.376146	687.25
1152.931345	687.5
1153.486487	686.0
1154.041572	686.5
1154.5966	688.75
1155.151571	684.75
1155.706485	688.0
1156.261342	685.0
1156.816142	685.0
1157.370885	684.0
1157.925572	684.5
1158.480201	686.0
1159.034774	683.75
1159.589289	684.25
1160.143748	683.5
1160.698149	683.0
1161.252494	685.75
1161.806782	689.25
1162.361013	683.5
1162.915187	686.0
1163.469304	687.75
1164.023364	682.0
1164.577368	689.0
1165.131314	687.5
1165.685204	685.75
1166.239036	686.5
1166.792812	685.25
1167.346531	685.5
1167.900193	686.25
1168.453798	689.0
1169.007347	681.5
1169.560838	684.25
1170.114273	688.75
1170.66765	686.0
1171.220971	681.75
1171.774235	688.0
1172.327443	685.75
1172.880593	680.25
1173.433687	685.0
1173.986723	680.5
1174.539703	686.75
1175.092626	681.75
1175.645493	685.25
1176.198302	684.25
1176.751055	684.0
1177.303751	683.0
1177.85639	688.25
1178.408972	684.0
1178.961498	685.25
1179.513966	685.25
1180.066378	684.25
1180.618733	683.0
1181.171032	683.25
1181.723273	683.0
1182.275458	682.75
1182.827586	681.0
1183.379657	686.25
1183.931672	686.25
1184.48363	684.75
1185.035531	682.75
1185.587375	684.5
1186.139162	686.25
1186.690893	685.25
1187.242567	685.5
1187.794184	683.75
1188.345745	681.75
1188.897249	682.25
1189.448696	685.0
1190.000086	683.25
1190.55142	686.5
1191.102697	685.75
1191.653918	684.25
1192.205081	678.75
1192.756188	685.0
1193.307238	707.25
1193.858232	685.25
1194.409169	685.0
1194.960049	680.25
1195.510872	688.25
1196.061639	685.25
1196.612349	683.75
1197.163003	685.25
1197.713599	681.75
1198.264139	684.5
1198.814623	685.25
1199.36505	680.0
1199.91542	684.75
1200.465734	686.5
1201.01599	683.5
1201.566191	682.0
1202.116334	682.5
1202.666421	684.75
1203.216452	682.5
1203.766425	685.5
1204.316343	686.25
1204.866203	685.5
1205.416007	681.75
1205.965754	687.25
1206.515445	682.0
1207.065079	687.5
1207.614657	687.0
1208.164177	687.75
1208.713642	685.75
1209.26305	688.0
1209.812401	680.5
1210.361695	685.5
1210.910933	682.75
1211.460115	682.25
1212.00924	686.5
1212.558308	684.25
1213.10732	682.5
1213.656275	682.5
1214.205174	685.75
1214.754016	683.25
1215.302801	685.0
1215.85153	681.25
1216.400203	686.0
1216.948819	682.75
1217.497378	687.25
1218.045881	686.25
1218.594327	686.0
1219.142717	685.5
1219.691051	686.75
1220.239327	681.25
1220.787548	682.75
1221.335712	681.0
1221.883819	685.75
1222.43187	684.0
1222.979864	683.25
1223.527802	688.75
1224.075683	685.5
1224.623508	682.75
1225.171277	684.5
1225.718989	683.5
1226.266644	682.0
1226.814243	685.0
1227.361786	684.75
1227.909272	687.25
1228.456702	681.5
1229.004075	684.75
1229.551392	685.0
1230.098652	681.0
1230.645856	685.75
1231.193003	686.25
1231.740094	684.25
1232.287129	683.75
1232.834107	681.25
1233.381029	681.0
1233.927894	679.0
1234.474703	687.0
1235.021455	681.5
1235.568151	681.75
1236.114791	687.75
1236.661374	682.75
1237.207901	683.5
1237.754372	686.25
1238.300786	682.25
1238.847144	682.25
1239.393445	683.25
1239.93969	685.75
1240.485879	684.25
1241.032011	685.5
1241.578087	681.5
1242.124106	681.5
1242.67007	682.5
1243.215976	684.75
1243.761827	683.0
1244.307621	682.0
1244.853359	682.5
1245.39904	681.25
1245.944665	682.5
1246.490234	681.75
1247.035746	681.5
1247.581203	682.25
1248.126602	684.0
1248.671946	681.5
1249.217233	686.25
1249.762464	683.25
1250.307638	683.5
1250.852757	684.25
1251.397819	681.25
1251.942824	684.75
1252.487774	685.75
1253.032667	684.0
1253.577503	682.25
1254.122284	684.0
1254.667008	685.25
1255.211676	681.25
1255.756288	686.25
1256.300843	684.5
1256.845342	681.5
1257.389785	681.25
1257.934172	681.25
1258.478502	682.75
1259.022776	681.25
1259.566994	686.25
1260.111156	698.5
1260.655261	681.75
1261.199311	683.0
1261.743304	686.75
1262.28724	683.75
1262.831121	681.5
1263.374945	684.5
1263.918713	684.75
1264.462425	680.75
1265.006081	684.25
1265.54968	700.5
1266.093223	700.75
1266.636711	686.0
1267.180141	682.5
1267.723516	683.75
1268.266835	684.25
1268.810097	681.0
1269.353303	682.0
1269.896453	681.75
1270.439547	679.75
1270.982584	684.5
1271.525566	685.0
1272.068491	684.75
1272.61136	681.5
1273.154173	681.25
1273.69693	687.25
1274.239631	680.5
1274.782275	682.0
1275.324864	681.75
1275.867396	681.75
1276.409872	681.75
1276.952292	679.75
1277.494656	682.25
1278.036964	684.25
1278.579215	684.25
1279.121411	680.0
1279.66355	684.75
1280.205634	684.75
1280.747661	679.75
1281.289632	682.5
1281.831547	683.25
1282.373406	681.5
1282.915209	680.5
1283.456955	688.25
1283.998646	683.75
1284.540281	687.0
1285.081859	696.5
1285.623381	769.5
1286.164848	925.5
1286.706258	788.25
1287.247612	702.0
1287.788911	692.0
1288.330153	686.5
1288.871339	684.5
1289.412469	685.0
1289.953543	682.25
1290.494561	683.25
1291.035523	676.5
1291.576428	682.25
1292.117278	683.25
1292.658072	680.0
1293.19881	684.75
1293.739492	681.0
1294.280118	680.75
1294.820687	683.5
1295.361201	685.5
1295.901659	681.75
1296.442061	685.5
1296.982406	681.0
1297.522696	684.0
1298.06293	681.75
1298.603108	683.0
1299.143229	683.75
1299.683295	682.5
1300.223305	683.25
1300.763259	684.75
1301.303157	679.0
1301.842999	681.25
1302.382785	681.5
1302.922515	681.25
1303.462189	684.25
1304.001807	684.0
1304.541369	682.75
1305.080875	679.5
1305.620326	681.75
1306.15972	682.5
1306.699058	681.75
1307.238341	683.75
1307.777567	680.75
1308.316738	684.75
1308.855853	679.25
1309.394912	682.5
1309.933915	680.25
1310.472862	684.5
1311.011753	681.5
1311.550588	682.25
1312.089367	678.5
1312.62809	683.25
1313.166758	685.75
1313.70537	682.25
1314.243925	683.0
1314.782425	685.5
1315.320869	684.75
1315.859257	681.5
1316.397589	682.0
1316.935866	684.0
1317.474086	685.0
1318.012251	681.0
1318.55036	683.25
1319.088413	683.5
1319.62641	682.25
1320.164351	681.75
1320.702236	685.25
1321.240066	679.0
1321.777839	684.0
1322.315557	684.25
1322.853219	684.0
1323.390826	685.25
1323.928376	688.25
1324.465871	685.0
1325.003309	682.25
1325.540692	677.75
1326.07802	682.25
1326.615291	683.25
1327.152506	681.5
1327.689666	682.25
1328.22677	681.5
1328.763818	685.5
1329.300811	680.75
1329.837747	681.25
1330.374628	680.25
1330.911453	682.5
1331.448222	685.75
1331.984936	683.5
1332.521594	679.0
1333.058196	682.25
1333.594742	680.0
1334.131232	683.0
1334.667667	684.25
1335.204046	682.5
1335.740369	681.75
1336.276637	684.0
1336.812848	682.75
1337.349004	682.5
1337.885105	683.0
1338.421149	681.75
1338.957138	682.75
1339.493071	683.25
1340.028949	682.0
1340.56477	684.75
1341.100536	681.25
1341.636246	682.75
1342.171901	683.0
1342.7075	682.5
1343.243043	679.25
1343.77853	683.5
1344.313962	681.25
1344.849338	681.0
1345.384659	680.5
1345.919923	684.0
1346.455133	683.25
1346.990286	680.5
1347.525384	683.0
1348.060426	682.0
1348.595412	678.75
1349.130343	679.25
1349.665218	681.75
1350.200037	681.25
1350.734801	680.5
1351.269509	677.75
1351.804162	682.5
1352.338758	685.0
1352.8733	685.5
1353.407785	684.0
1353.942215	683.75
1354.476589	684.75
1355.010908	680.75
1355.545171	686.25
1356.079379	680.25
1356.61353	683.0
1357.147627	680.5
1357.681667	683.25
1358.215652	683.5
1358.749582	682.0
1359.283456	681.75
1359.817274	680.5
1360.351037	682.75
1360.884744	679.75
1361.418395	685.0
1361.951991	679.5
1362.485531	682.25
1363.019016	683.75
1363.552445	687.0
1364.085819	681.0
1364.619137	682.75
1365.1524	678.75
1365.685607	680.75
1366.218758	682.75
1366.751854	679.0
1367.284894	681.0
1367.817879	684.25
1368.350808	683.25
1368.883682	678.0
1369.4165	682.25
1369.949263	684.0
1370.48197	685.0
1371.014622	687.5
1371.547218	682.5
1372.079758	681.25
1372.612244	683.25
1373.144673	681.25
1373.677047	683.0
1374.209366	680.25
1374.741629	682.0
1375.273836	680.75
1375.805989	683.75
1376.338085	679.75
1376.870126	682.0
1377.402112	681.5
1377.934042	677.5
1378.465917	684.0
1378.997736	681.0
1379.5295	678.25
1380.061208	683.75
1380.592861	679.0
1381.124459	683.75
1381.656	682.75
1382.187487	686.25
1382.718918	679.75
1383.250294	681.25
1383.781614	678.5
1384.312879	683.5
1384.844088	683.0
1385.375242	684.75
1385.90634	682.25
1386.437383	687.25
1386.968371	687.75
1387.499303	689.25
1388.03018	694.75
1388.561001	748.25
1389.091767	1009.25
1389.622478	943.25
1390.153133	725.5
1390.683733	690.75
1391.214277	688.0
1391.744766	685.25
1392.2752	686.5
1392.805578	682.25
1393.335901	680.75
1393.866168	686.0
1394.396381	689.25
1394.926537	684.75
1395.456639	682.25
1395.986685	683.75
1396.516675	684.0
1397.046611	685.25
1397.576491	682.25
1398.106315	682.25
1398.636084	683.25
1399.165798	685.0
1399.695457	680.0
1400.22506	680.0
1400.754608	680.75
1401.284101	689.0
1401.813538	681.25
1402.34292	681.75
1402.872247	683.75
1403.401518	682.5
1403.930734	682.75
1404.459895	680.5
1404.989	686.75
1405.51805	682.75
1406.047045	684.75
1406.575984	681.0
1407.104869	683.25
1407.633697	686.0
1408.162471	687.0
1408.691189	683.75
1409.219852	682.25
1409.74846	689.0
1410.277013	714.25
1410.80551	717.75
1411.333952	686.5
1411.862339	688.75
1412.39067	685.5
1412.918946	681.75
1413.447167	684.5
1413.975333	684.5
1414.503444	682.25
1415.031499	684.25
1415.559499	693.5
1416.087444	680.25
1416.615333	683.75
1417.143167	685.75
1417.670947	680.75
1418.19867	687.5
1418.726339	684.0
1419.253952	683.5
1419.781511	686.0
1420.309014	687.25
1420.836461	683.75
1421.363854	681.25
1421.891191	683.0
1422.418474	681.75
1422.945701	684.5
1423.472872	681.5
1423.999989	678.25
1424.52705	680.25
1425.054057	683.0
1425.581008	683.25
1426.107904	682.25
1426.634745	684.75
1427.16153	685.75
1427.688261	683.25
1428.214936	685.25
1428.741556	680.5
1429.268121	678.25
1429.794631	683.25
1430.321085	680.25
1430.847485	681.25
1431.373829	683.5
1431.900118	681.25
1432.426353	676.75
1432.952532	683.75
1433.478655	685.25
1434.004724	683.5
1434.530738	681.25
1435.056696	683.0
1435.5826	684.5
1436.108448	684.25
1436.634241	686.5
1437.159979	683.25
1437.685662	678.5
1438.21129	680.75
1438.736863	684.0
1439.262381	680.0
1439.787843	683.0
1440.313251	683.25
1440.838603	680.75
1441.3639	679.75
1441.889143	680.25
1442.41433	681.25
1442.939462	683.25
1443.464539	677.5
1443.989561	681.5
1444.514528	677.5
1445.03944	684.0
1445.564297	681.75
1446.089099	682.75
1446.613846	679.0
1447.138537	683.75
1447.663174	684.75
1448.187756	683.0
1448.712282	680.0
1449.236754	683.5
1449.761171	685.0
1450.285532	684.75
1450.809839	681.25
1451.33409	681.75
1451.858287	680.0
1452.382428	680.25
1452.906515	679.75
1453.430546	678.5
1453.954523	678.75
1454.478444	682.25
1455.002311	683.0
1455.526123	685.0
1456.049879	685.25
1456.573581	683.25
1457.097227	681.0
1457.620819	683.5
1458.144356	679.25
1458.667837	682.5
1459.191264	678.75
1459.714636	684.0
1460.237952	680.5
1460.761214	683.0
1461.284421	682.25
1461.807573	680.5
1462.33067	681.75
1462.853712	694.5
1463.899632	692.0
1464.422509	682.0
1464.945331	684.75
1465.468099	683.75
1465.990811	679.75
1466.513469	682.75
1467.036071	682.5
1467.558619	684.25
1468.081112	684.5
1468.60355	682.75
1469.125933	677.0
1469.648261	680.25
1470.170534	687.25
1470.692752	680.0
1471.214916	680.75
1471.737024	681.0
1472.259078	681.5
1472.781077	685.5
1473.303021	681.0
1473.82491	683.5
1474.346744	678.25
1474.868523	683.0
1475.390248	684.0
1475.911917	683.5
1476.433532	680.75
1476.955092	682.5
1477.476597	682.0
1477.998047	683.25
1478.519442	683.0
1479.040783	683.75
1479.562068	681.5
1480.083299	681.75
1480.604475	681.25
1481.125596	683.0
1481.646663	682.25
1482.167674	680.5
1482.688631	681.25
1483.209533	680.5
1483.73038	683.25
1484.251172	679.25
1484.771909	682.75
1485.292592	683.25
1485.81322	678.0
1486.333793	683.0
1486.854311	682.0
1487.374775	684.5
1487.895183	682.0
1488.415537	677.5
1488.935836	680.25
1489.456081	680.0
1489.97627	679.5
1490.496405	679.25
1491.016485	681.75
1491.536511	680.5
1492.056481	682.0
1492.576397	680.5
1493.096258	679.25
1493.616064	680.25
1494.135816	681.0
1494.655513	683.25
1495.175155	677.5
1495.694742	680.5
1496.214274	683.5
1496.733752	682.75
1497.253175	677.25
1497.772544	676.75
1498.291858	685.75
1498.811116	683.25
1499.330321	680.5
1499.84947	688.0
1500.368565	680.0
1500.887605	678.5
1501.406591	679.5
1501.925521	682.75
1502.444397	684.25
1502.963219	681.75
1503.481985	682.5
1504.000697	681.5
1504.519355	678.0
1505.037957	679.25
1505.556505	683.25
1506.074999	682.75
1506.593437	674.25
1507.111821	681.0
1507.63015	680.0
1508.148425	682.0
1508.666645	683.25
1509.18481	682.75
1509.702921	679.5
1510.220977	679.5
1510.738979	686.5
1511.256925	681.25
1511.774817	680.0
1512.292655	675.75
1512.810438	681.5
1513.328166	683.25
1513.84584	681.25
1514.363459	683.0
1514.881023	679.75
1515.398533	679.5
1515.915988	678.75
1516.433389	678.0
1516.950734	684.5
1517.468026	679.5
1517.985263	679.75
1518.502445	680.5
1519.019572	682.25
1519.536645	682.0
1520.053664	679.75
1520.570628	679.5
1521.087537	678.25
1521.604392	680.25
1522.121192	680.5
1522.637937	680.0
1523.154628	681.75
1523.671265	684.0
1524.187847	679.25
1524.704374	682.5
1525.220847	682.25
1525.737265	682.25
1526.769938	690.25
1527.286192	683.0
1527.802392	679.75
1528.318538	678.5
1528.834629	682.75
1529.350666	680.0
1529.866648	683.5
1530.382575	680.5
1530.898448	681.5
1531.414266	684.0
1531.93003	685.25
1532.44574	683.5
1532.961395	678.5
1533.476995	679.25
1533.992541	676.75
1534.508033	679.75
1535.02347	678.25
1535.538852	679.75
1536.05418	683.5
1536.569454	682.25
1537.084673	679.0
1537.599837	683.0
1538.114947	683.0
1538.630003	682.0
1539.145004	678.75
1539.659951	682.0
1540.174843	677.75
1540.689681	680.25
1541.204465	681.5
1541.719194	681.0
1542.233868	683.0
1542.748488	681.5
1543.263054	681.0
1543.777565	682.25
1544.292022	680.25
1544.806424	678.25
1545.320772	678.75
1545.835066	682.25
1546.349305	682.25
1546.863489	680.75
1547.37762	683.0
1547.891696	683.0
1548.405717	681.25
1548.919684	681.5
1549.433597	681.0
1549.947455	685.0
1550.461259	680.5
1550.975009	682.5
1551.488704	681.5
1552.002345	682.0
1552.515931	685.0
1553.029463	683.0
1553.542941	680.75
1554.056364	677.25
1554.569733	680.25
1555.083048	680.5
1555.596308	686.25
1556.109514	681.0
1556.622665	680.0
1557.135762	684.5
1557.648805	683.0
1558.161794	682.75
1558.674728	679.0
1559.187608	683.0
1559.700433	681.0
1560.213205	679.0
1560.725921	683.0
1561.238584	674.75
1561.751192	684.5
1562.263746	682.5
1562.776246	683.75
1563.288691	678.25
1563.801082	684.5
1564.313419	682.75
1564.825701	684.75
1565.337929	683.5
1565.850103	685.25
1566.362223	685.0
1566.874288	683.5
1567.386299	686.25
1567.898256	684.25
1568.410158	684.25
1568.922007	679.75
1569.4338	685.25
1569.94554	682.75
1570.457226	685.5
1570.968857	679.5
1571.480434	685.75
1571.991956	681.0
1572.503425	684.25
1573.014839	684.75
1573.526199	681.0
1574.037505	683.5
1574.548756	682.0
1575.059953	680.75
1575.571096	688.0
1576.082185	683.25
1576.59322	679.0
1577.1042	682.25
1577.615126	676.75
1578.125998	677.25
1578.636816	682.5
1579.14758	682.5
1579.658289	679.0
1580.168944	682.0
1580.679545	680.75
1581.190092	679.75
1581.700585	683.75
1582.211023	682.25
1582.721407	680.5
1583.231737	682.25
1583.742013	679.75
1584.252235	680.75
1584.762403	679.25
1585.272516	679.25
1585.782575	685.5
1586.292581	677.0
1586.802532	678.25
1587.312428	682.0
1587.822271	678.75
1588.33206	681.25
1588.841794	682.5
1589.351474	681.0
1589.8611	682.25
1590.370672	681.75
1590.88019	681.25
1591.389654	680.5
1591.899064	680.25
1592.408419	678.5
