1042.452273	727.25
1043.018714	722.75
1043.585098	723.0
1044.151424	713.5
1044.717692	719.0
1045.283903	716.75
1045.850056	717.75
1046.416151	710.25
1046.982188	707.25
1047.548167	710.75
1048.114089	707.0
1048.679953	703.25
1049.24576	706.25
1049.811509	705.75
1050.3772	702.0
1050.942833	707.75
1051.508408	705.25
1052.073926	704.0
1052.639387	698.5
1053.204789	702.5
1053.770134	701.5
1054.335421	700.75
1054.900651	704.25
1055.465823	700.75
1056.030937	694.5
1056.595993	697.5
1057.160992	698.5
1057.725934	702.0
1058.290817	695.25
1058.855643	700.25
1059.420411	697.75
1059.985122	696.0
1060.549775	694.75
1061.114371	697.0
1061.678908	693.75
1062.243389	696.5
1062.807811	693.75
1063.372176	694.5
1063.936483	696.0
1064.500733	694.75
1065.064925	693.75
1065.62906	697.75
1066.193137	694.5
1066.757156	690.0
1067.321118	693.5
1067.885022	696.0
1068.448869	692.5
1069.012658	690.5
1069.57639	693.5
1070.140063	699.25
1070.70368	691.75
1071.267239	692.75
1071.83074	688.5
1072.394184	695.75
1072.95757	690.5
1073.520899	693.5
1074.08417	694.25
1075.21054	699.0
1075.773638	687.25
1076.336679	694.5
1076.899663	696.0
1077.462589	689.5
1078.025457	692.5
1078.588268	691.25
1079.151022	693.25
1079.713718	691.25
1080.276356	688.75
1080.838937	692.25
1081.401461	695.5
1081.963927	683.75
1082.526336	690.0
1083.088687	688.5
1083.650981	693.0
1084.213217	689.0
1084.775396	690.75
1085.337517	689.75
1085.899581	691.0
1086.461587	691.75
1087.023536	692.0
1087.585428	692.25
1088.147262	692.25
1088.709039	692.25
1089.270758	692.25
1089.83242	689.5
1090.394024	692.25
1090.955571	690.75
1091.517061	688.0
1092.078493	691.5
1092.639868	690.25
1093.201185	689.25
1093.762445	690.75
1094.323648	694.25
1094.884793	691.25
1095.445881	691.5
1096.006911	689.75
1096.567884	691.25
1097.1288	698.25
1097.689659	690.25
1098.25046	686.5
1098.811203	695.75
1099.37189	691.0
1099.932518	692.5
1100.49309	694.25
1101.053604	692.25
1101.614061	688.5
1102.174461	689.0
1102.734803	691.75
1103.295088	688.0
1103.855316	691.5
1104.415486	689.25
1104.975599	684.75
1105.535655	688.0
1106.095653	689.75
1106.655594	688.25
1107.215478	690.25
1107.775305	690.25
1108.335074	691.25
1108.894786	689.0
1109.45444	690.75
1110.014038	689.0
1110.573578	695.0
1111.133061	686.5
1111.692486	692.5
1112.251854	695.25
1112.811165	690.75
1113.370419	689.0
1113.929616	690.75
1114.488755	687.0
1115.047837	686.25
1115.606862	689.75
1116.16583	686.75
1116.72474	691.75
1117.283593	692.25
1117.842389	692.5
1118.401128	688.5
1118.959809	689.5
1119.518433	692.75
1120.077	694.5
1120.63551	690.75
1121.193963	690.0
1121.752358	691.0
1122.310697	690.75
1122.868978	693.0
1123.427202	691.5
1123.985368	689.75
1124.543478	687.0
1125.10153	687.25
1125.659526	693.25
1126.217464	691.25
1126.775345	692.0
1127.333168	690.25
1127.890935	691.25
1128.448644	695.5
1129.006297	691.75
1129.563892	689.75
1130.12143	689.25
1130.678911	692.0
1131.236335	689.0
1131.793701	691.75
1132.351011	689.25
1132.908263	694.0
1133.465458	696.25
1134.022597	692.75
1134.579678	689.5
1135.136702	693.25
1135.693669	690.75
1136.250578	691.75
1136.807431	693.75
1137.364227	691.25
1137.920965	691.0
1138.477647	686.75
1139.034271	693.25
1139.590839	690.25
1140.147349	695.25
1140.703802	692.0
1141.260198	694.5
1141.816537	696.5
1142.37282	692.5
1142.929045	699.75
1143.485213	710.75
1144.041323	702.25
1144.597377	697.25
1145.153374	697.5
1145.709314	694.75
1146.265197	697.0
1146.821023	703.0
1147.376792	719.25
1147.932503	725.0
1148.488158	710.75
1149.043756	710.5
1149.599297	718.5
1150.154781	782.25
1150.710207	945.25
1151.265577	909.0
1151.82089	762.25
1152.376146	711.5
1152.931345	693.5
1153.486487	699.5
1154.041572	697.75
1154.5966	692.5
1155.151571	693.0
1155.706485	692.25
1156.261342	695.25
1156.816142	692.0
1157.370885	693.0
1157.925572	691.75
1158.480201	693.75
1159.034774	695.25
1159.589289	694.5
1160.143748	695.75
1160.698149	691.5
1161.252494	693.5
1161.806782	689.5
1162.361013	694.5
1162.915187	695.25
1163.469304	693.0
1164.023364	687.75
1164.577368	690.25
1165.131314	693.25
1165.685204	686.75
1166.239036	694.75
1166.792812	697.5
1167.346531	691.25
1167.900193	687.25
1168.453798	694.0
1169.007347	693.5
1169.560838	692.5
1170.114273	690.25
1170.66765	696.5
1171.220971	693.5
1171.774235	690.25
1172.327443	692.25
1172.880593	694.5
1173.433687	687.25
1173.986723	692.5
1174.539703	691.0
1175.092626	692.75
1175.645493	691.0
1176.198302	692.0
1176.751055	692.5
1177.303751	690.25
1177.85639	697.0
1178.408972	692.75
1178.961498	686.0
1179.513966	693.5
1180.066378	690.5
1180.618733	692.5
1181.171032	691.5
1181.723273	692.5
1182.275458	688.0
1182.827586	692.0
1183.379657	690.75
1183.931672	689.75
1184.48363	687.25
1185.035531	691.5
1185.587375	689.75
1186.139162	689.0
1186.690893	688.75
1187.242567	693.0
1187.794184	689.5
1188.345745	688.0
1188.897249	690.75
1189.448696	691.25
1190.000086	691.75
1190.55142	687.75
1191.102697	688.75
1191.653918	689.25
1192.205081	692.75
1192.756188	694.75
1193.307238	710.5
1193.858232	690.0
1194.409169	688.75
1194.960049	688.25
1195.510872	692.75
1196.061639	689.25
1196.612349	688.0
1197.163003	693.5
1197.713599	689.5
1198.264139	692.25
1198.814623	690.25
1199.36505	692.0
1199.91542	692.5
1200.465734	690.75
1201.01599	691.0
1201.566191	688.5
1202.116334	693.25
1202.666421	691.75
1203.216452	691.25
1203.766425	687.0
1204.316343	692.25
1204.866203	692.25
1205.416007	693.75
1205.965754	692.5
1206.515445	691.75
1207.065079	689.5
1207.614657	686.75
1208.164177	689.0
1208.713642	689.5
1209.26305	688.0
1209.812401	692.5
1210.361695	694.25
1210.910933	690.5
1211.460115	692.0
1212.00924	694.25
1212.558308	689.5
1213.10732	691.0
1213.656275	687.75
1214.205174	687.25
1214.754016	691.25
1215.302801	691.25
1215.85153	688.75
1216.400203	690.25
1216.948819	687.25
1217.497378	688.75
1218.045881	689.25
1218.594327	684.5
1219.142717	688.75
1219.691051	689.75
1220.239327	690.75
1220.787548	690.5
1221.335712	688.5
1221.883819	693.25
1222.43187	694.0
1222.979864	692.5
1223.527802	691.75
1224.075683	688.0
1224.623508	692.25
1225.171277	691.75
1225.718989	691.5
1226.266644	688.0
1226.814243	686.5
1227.361786	691.25
1227.909272	689.75
1228.456702	690.0
1229.004075	690.75
1229.551392	692.0
1230.098652	688.75
1230.645856	696.0
1231.193003	689.5
1231.740094	692.5
1232.287129	690.0
1232.834107	693.5
1233.381029	691.75
1233.927894	694.5
1234.474703	692.0
1235.021455	698.0
1235.568151	694.25
1236.114791	692.5
1236.661374	692.5
1237.207901	695.75
1237.754372	691.5
1238.300786	695.0
1238.847144	693.25
1239.393445	694.25
1239.93969	692.25
1240.485879	696.25
1241.032011	691.0
1241.578087	694.25
1242.124106	697.25
1242.67007	693.25
1243.215976	695.75
1243.761827	690.75
1244.307621	698.5
1244.853359	696.0
1245.39904	694.25
1245.944665	693.0
1246.490234	695.5
1247.035746	694.75
1247.581203	690.0
1248.126602	695.25
1248.671946	696.25
1249.217233	697.0
1249.762464	694.75
1250.307638	700.75
1250.852757	696.25
1251.397819	695.25
1251.942824	696.5
1252.487774	696.75
1253.032667	696.0
1253.577503	691.75
1254.122284	698.0
1254.667008	697.5
1255.211676	695.5
1255.756288	693.25
1256.300843	697.75
1256.845342	694.5
1257.389785	696.25
1257.934172	695.0
1258.478502	700.0
1259.022776	702.5
1259.566994	706.0
1260.111156	718.0
1260.655261	694.75
1261.199311	698.25
1261.743304	697.75
1262.28724	705.0
1262.831121	702.5
1263.374945	707.25
1263.918713	712.0
1264.462425	725.75
1265.006081	754.25
1265.54968	783.75
1266.093223	746.5
1266.636711	720.75
1267.180141	706.0
1267.723516	703.0
1268.266835	702.0
1268.810097	698.25
1269.353303	698.25
1269.896453	699.25
1270.439547	699.5
1270.982584	695.5
1271.525566	700.0
1272.068491	701.25
1272.61136	700.75
1273.154173	700.75
1273.69693	696.75
1274.239631	700.75
1274.782275	698.0
1275.324864	696.25
1275.867396	701.75
1276.409872	695.5
1276.952292	697.25
1277.494656	696.5
1278.036964	700.25
1278.579215	700.75
1279.121411	700.75
1279.66355	705.5
1280.205634	700.75
1280.747661	702.0
1281.289632	708.25
1281.831547	706.75
1282.373406	705.5
1282.915209	720.25
1283.456955	738.25
1283.998646	768.0
1284.540281	869.75
1285.081859	1242.0
1285.623381	1870.75
1286.164848	1444.75
1286.706258	897.0
1287.247612	772.0
1287.788911	731.25
1288.330153	722.5
1288.871339	712.25
1289.412469	708.25
1289.953543	706.75
1290.494561	702.25
1291.035523	700.75
1291.576428	702.25
1292.117278	699.5
1292.658072	702.75
1293.19881	700.75
1293.739492	698.5
1294.280118	697.0
1294.820687	698.75
1295.361201	697.0
1295.901659	698.75
1296.442061	701.75
1296.982406	701.75
1297.522696	699.0
1298.06293	697.75
1298.603108	700.0
1299.143229	701.5
1299.683295	693.0
1300.223305	696.5
1300.763259	701.0
1301.303157	694.0
1301.842999	703.0
1302.382785	695.5
1302.922515	696.5
1303.462189	701.5
1304.001807	694.0
1304.541369	697.0
1305.080875	696.0
1305.620326	696.75
1306.15972	695.5
1306.699058	697.5
1307.238341	699.25
1307.777567	702.0
1308.316738	695.25
1308.855853	694.75
1309.394912	700.0
1309.933915	695.0
1310.472862	694.75
1311.011753	699.25
1311.550588	697.5
1312.089367	695.25
1312.62809	698.75
1313.166758	693.5
1313.70537	694.5
1314.243925	698.0
1314.782425	688.25
1315.320869	698.0
1315.859257	697.0
1316.397589	696.5
1316.935866	696.5
1317.474086	703.25
1318.012251	696.0
1318.55036	693.5
1319.088413	691.75
1319.62641	696.5
1320.164351	696.25
1320.702236	694.25
1321.240066	692.0
1321.777839	694.5
1322.315557	693.0
1322.853219	700.5
1323.390826	698.5
1323.928376	707.0
1324.465871	693.0
1325.003309	694.5
1325.540692	696.5
1326.07802	694.0
1326.615291	696.0
1327.152506	701.0
1327.689666	700.25
1328.22677	695.0
1328.763818	699.0
1329.300811	699.25
1329.837747	694.0
1330.374628	699.0
1330.911453	698.75
1331.448222	696.0
1331.984936	699.0
1332.521594	692.75
1333.058196	697.5
1333.594742	694.0
1334.131232	699.0
1334.667667	695.75
1335.204046	696.75
1335.740369	690.5
1336.276637	700.25
1336.812848	698.5
1337.349004	700.75
1337.885105	695.75
1338.421149	697.75
1338.957138	693.75
1339.493071	693.75
1340.028949	696.5
1340.56477	695.5
1341.100536	696.25
1341.636246	699.0
1342.171901	689.75
1342.7075	698.5
1343.243043	700.5
1343.77853	697.5
1344.313962	700.25
1344.849338	691.25
1345.384659	693.75
1345.919923	698.75
1346.455133	694.5
1346.990286	690.25
1347.525384	695.0
1348.060426	695.0
1348.595412	696.75
1349.130343	697.0
1349.665218	697.5
1350.200037	694.75
1350.734801	697.5
1351.269509	691.75
1351.804162	698.5
1352.338758	695.5
1352.8733	696.75
1353.407785	696.0
1353.942215	697.75
1354.476589	695.0
1355.010908	698.25
1355.545171	698.75
1356.079379	699.0
1356.61353	699.25
1357.147627	695.5
1357.681667	699.5
1358.215652	695.25
1358.749582	699.75
1359.283456	697.75
1359.817274	701.0
1360.351037	698.75
1360.884744	698.5
1361.418395	697.75
1361.951991	698.0
1362.485531	699.25
1363.019016	697.0
1363.552445	700.5
1364.085819	694.5
1364.619137	695.25
1365.1524	701.75
1365.685607	698.5
1366.218758	699.75
1366.751854	708.75
1367.284894	700.75
1367.817879	699.75
1368.350808	700.5
1368.883682	698.25
1369.4165	702.75
1369.949263	699.5
1370.48197	728.75
1371.014622	722.25
1371.547218	705.75
1372.079758	697.0
1372.612244	695.0
1373.144673	694.75
1373.677047	700.25
1374.209366	698.0
1374.741629	699.25
1375.273836	701.0
1375.805989	696.75
1376.338085	702.0
1376.870126	695.25
1377.402112	701.75
1377.934042	705.5
1378.465917	706.75
1378.997736	699.75
1379.5295	702.75
1380.061208	700.0
1380.592861	702.75
1381.124459	703.5
1381.656	697.25
1382.187487	708.5
1382.718918	704.75
1383.250294	705.0
1383.781614	709.25
1384.312879	707.75
1384.844088	718.5
1385.375242	714.5
1385.90634	721.25
1386.437383	738.75
1386.968371	755.0
1387.499303	808.5
1388.03018	1010.0
1388.561001	1978.5
1389.091767	2646.75
1389.622478	1415.25
1390.153133	861.25
1390.683733	761.75
1391.214277	731.25
1391.744766	721.5
1392.2752	715.0
1392.805578	711.0
1393.335901	707.0
1393.866168	705.0
1394.396381	710.25
1394.926537	703.0
1395.456639	704.5
1395.986685	700.75
1396.516675	701.25
1397.046611	699.75
1397.576491	698.0
1398.106315	704.75
1398.636084	700.25
1399.165798	701.75
1399.695457	702.25
1400.22506	701.0
1400.754608	697.75
1401.284101	701.5
1401.813538	702.0
1402.34292	698.25
1402.872247	695.5
1403.401518	699.5
1403.930734	701.75
1404.459895	700.0
1404.989	693.5
1405.51805	703.0
1406.047045	697.25
1406.575984	702.0
1407.104869	707.0
1407.633697	704.25
1408.162471	713.25
1408.691189	715.5
1409.219852	730.0
1409.74846	790.5
1410.277013	857.0
1410.80551	804.0
1411.333952	738.25
1411.862339	708.0
1412.39067	704.25
1412.918946	700.25
1413.447167	696.5
1413.975333	700.5
1414.503444	702.25
1415.031499	700.25
1415.559499	705.25
1416.087444	703.75
1416.615333	698.5
1417.143167	699.5
1417.670947	694.75
1418.19867	700.25
1418.726339	696.75
1419.253952	695.75
1419.781511	698.75
1420.309014	699.5
1420.836461	693.5
1421.363854	695.25
1421.891191	698.5
1422.418474	691.5
1422.945701	694.75
1423.472872	696.25
1423.999989	701.5
1424.52705	697.0
1425.054057	698.0
1425.581008	698.0
1426.107904	696.5
1426.634745	699.5
1427.16153	697.75
1427.688261	697.75
1428.214936	693.75
1428.741556	695.75
1429.268121	696.25
1429.794631	698.75
1430.321085	696.0
1430.847485	695.25
1431.373829	693.0
1431.900118	692.5
1432.426353	695.5
1432.952532	693.25
1433.478655	694.25
1434.004724	695.0
1434.530738	697.0
1435.056696	695.0
1435.5826	692.25
1436.108448	695.0
1436.634241	694.0
1437.159979	691.75
1437.685662	693.0
1438.21129	692.0
1438.736863	692.0
1439.262381	687.25
1439.787843	693.5
1440.313251	692.25
1440.838603	688.5
1441.3639	695.0
1441.889143	688.5
1442.41433	692.5
1442.939462	693.75
1443.464539	695.0
1443.989561	692.0
1444.514528	691.25
1445.03944	685.5
1445.564297	692.75
1446.089099	689.0
1446.613846	691.25
1447.138537	694.5
1447.663174	691.0
1448.187756	693.5
1448.712282	689.0
1449.236754	692.25
1449.761171	686.75
1450.285532	693.25
1450.809839	688.75
1451.33409	691.0
1451.858287	691.25
1452.382428	693.25
1452.906515	692.0
1453.430546	687.75
1453.954523	689.25
1454.478444	699.0
1455.002311	694.5
1455.526123	691.75
1456.049879	691.75
1456.573581	690.0
1457.097227	688.0
1457.620819	690.75
1458.144356	686.0
1458.667837	692.0
1459.191264	689.25
1459.714636	689.75
1460.237952	691.75
1460.761214	687.5
1461.284421	690.0
1461.807573	689.75
1462.33067	691.25
1462.853712	696.5
1463.376699	707.5
1463.899632	688.75
1464.422509	688.0
1464.945331	691.25
1465.468099	684.75
1465.990811	686.0
1466.513469	686.5
1467.036071	692.0
1467.558619	690.25
1468.081112	691.0
1468.60355	685.5
1469.125933	690.75
1469.648261	689.0
1470.170534	688.0
1470.692752	690.75
1471.214916	687.75
1471.737024	689.75
1472.259078	687.5
1472.781077	687.75
1473.303021	684.25
1473.82491	688.75
1474.346744	689.0
1474.868523	686.25
1475.390248	689.5
1475.911917	691.0
1476.433532	684.0
1476.955092	686.0
1477.476597	689.75
1477.998047	689.0
1478.519442	685.0
1479.040783	686.75
1479.562068	687.5
1480.083299	694.25
1480.604475	689.0
1481.125596	688.75
1481.646663	689.25
1482.167674	687.0
1482.688631	684.5
1483.209533	690.0
1483.73038	688.0
1484.251172	686.5
1484.771909	686.5
1485.292592	687.25
1485.81322	689.5
1486.333793	687.0
1486.854311	689.5
1487.374775	693.25
1487.895183	688.0
1488.415537	689.75
1488.935836	687.5
1489.456081	690.0
1489.97627	688.0
1490.496405	685.5
1491.016485	685.5
1491.536511	683.5
1492.056481	688.75
1492.576397	686.75
1493.096258	692.5
1493.616064	691.25
1494.135816	685.25
1494.655513	681.5
1495.175155	689.25
1495.694742	687.0
1496.214274	689.0
1496.733752	682.75
1497.253175	688.25
1497.772544	686.0
1498.291858	688.5
1498.811116	686.75
1499.330321	687.5
1499.84947	698.5
1500.368565	683.25
1500.887605	691.25
1501.406591	688.75
1501.925521	689.25
1502.444397	687.5
1502.963219	688.0
1503.481985	687.25
1504.000697	689.0
1504.519355	684.5
1505.037957	688.75
1505.556505	686.0
1506.074999	687.25
1506.593437	686.5
1507.111821	687.5
1507.63015	690.25
1508.148425	687.75
1508.666645	688.75
1509.18481	689.5
1509.702921	685.25
1510.220977	689.0
1510.738979	695.0
1511.256925	685.0
1511.774817	687.5
1512.292655	690.5
1512.810438	686.75
1513.328166	690.0
1513.84584	688.25
1514.363459	689.5
1514.881023	688.5
1515.398533	684.0
1515.915988	687.25
1516.433389	692.5
1516.950734	685.0
1517.468026	689.25
1517.985263	686.75
1518.502445	689.0
1519.019572	687.0
1519.536645	685.5
1520.053664	684.25
1520.570628	686.5
1521.087537	689.5
1521.604392	688.75
1522.121192	689.5
1522.637937	689.5
1523.154628	688.5
1523.671265	690.75
1524.187847	686.0
1524.704374	687.25
1525.220847	688.0
1525.737265	690.5
1526.253629	699.0
1526.769938	699.0
1527.286192	686.75
1527.802392	687.0
1528.318538	688.5
1528.834629	688.0
1529.350666	687.0
1529.866648	687.25
1530.382575	683.5
1530.898448	691.25
1531.414266	686.5
1531.93003	686.25
1532.44574	687.0
1532.961395	686.25
1533.476995	689.0
1533.992541	685.25
1534.508033	688.25
1535.02347	688.0
1535.538852	684.75
1536.05418	687.5
1536.569454	687.5
1537.084673	683.5
1537.599837	686.75
1538.114947	687.5
1538.630003	683.25
1539.145004	686.0
1539.659951	686.5
1540.174843	688.25
1540.689681	688.25
1541.204465	686.75
1541.719194	685.25
1542.233868	690.75
1542.748488	688.75
1543.263054	687.25
1543.777565	685.25
1544.292022	691.0
1544.806424	692.25
1545.320772	689.5
1545.835066	685.0
1546.349305	686.5
1546.863489	687.5
1547.37762	685.0
1547.891696	693.5
1548.405717	685.75
1548.919684	684.75
1549.433597	691.5
1549.947455	684.5
1550.461259	686.25
1550.975009	689.0
1551.488704	686.75
1552.002345	689.0
1552.515931	690.0
1553.029463	687.0
1553.542941	688.0
1554.056364	688.5
1554.569733	690.0
1555.083048	685.5
1555.596308	692.5
1556.109514	687.5
1556.622665	687.75
1557.135762	687.75
1557.648805	687.25
1558.161794	689.25
1558.674728	688.25
1559.187608	691.5
1559.700433	690.25
1560.213205	688.5
1560.725921	689.0
1561.238584	686.0
1561.751192	687.5
1562.263746	688.0
1562.776246	687.5
1563.288691	689.75
1563.801082	682.25
1564.313419	689.75
1564.825701	691.0
1565.337929	693.5
1565.850103	689.25
1566.362223	690.0
1566.874288	690.5
1567.386299	689.0
1567.898256	687.5
1568.410158	691.25
1568.922007	691.75
1569.4338	686.25
1569.94554	687.0
1570.457226	689.0
1570.968857	690.75
1571.480434	686.0
1571.991956	689.75
1572.503425	687.25
1573.014839	688.0
1573.526199	688.75
1574.037505	683.75
1574.548756	685.75
1575.059953	690.0
1575.571096	688.75
1576.082185	684.0
1576.59322	686.75
1577.1042	688.5
1577.615126	690.5
1578.125998	687.5
1578.636816	688.5
1579.14758	689.0
1579.658289	687.75
1580.168944	686.25
1580.679545	685.5
1581.190092	688.25
1581.700585	689.0
1582.211023	685.75
1582.721407	691.0
1583.231737	686.75
1583.742013	684.75
1584.252235	686.25
1584.762403	689.25
1585.272516	688.75
1585.782575	686.25
1586.292581	684.25
1586.802532	690.5
1587.312428	686.5
1587.822271	687.5
1588.33206	689.75
1588.841794	688.0
1589.351474	689.0
1589.8611	685.5
1590.370672	684.25
1590.88019	687.25
1591.389654	682.75
1591.899064	687.0
1592.408419	684.75
