1042.452273	1278.0
1043.018714	1270.0
1043.585098	1281.0
1044.151424	1264.0
1044.717692	1267.25
1045.283903	1264.75
1045.850056	1260.0
1046.416151	1257.75
1046.982188	1266.75
1047.548167	1262.25
1048.114089	1255.0
1048.679953	1259.25
1049.24576	1264.25
1049.811509	1246.0
1050.3772	1255.5
1050.942833	1232.25
1051.508408	1240.25
1052.073926	1240.0
1052.639387	1235.0
1053.204789	1221.5
1053.770134	1244.5
1054.335421	1227.5
1054.900651	1226.75
1055.465823	1223.75
1056.030937	1207.5
1056.595993	1236.25
1057.160992	1233.0
1057.725934	1229.25
1058.290817	1215.5
1058.855643	1224.75
1059.420411	1221.5
1059.985122	1219.75
1060.549775	1219.5
1061.114371	1214.5
1061.678908	1212.0
1062.243389	1211.75
1062.807811	1198.75
1063.372176	1214.25
1063.936483	1199.75
1064.500733	1215.25
1065.064925	1202.75
1065.62906	1226.25
1066.193137	1222.0
1066.757156	1222.0
1067.321118	1215.75
1067.885022	1202.75
1068.448869	1216.0
1069.012658	1219.25
1069.57639	1215.5
1070.140063	1211.75
1070.70368	1207.25
1071.267239	1218.5
1071.83074	1200.5
1072.394184	1213.5
1072.95757	1202.5
1073.520899	1217.0
1074.08417	1213.0
1074.647383	1213.5
1075.21054	1204.75
1075.773638	1201.0
1076.336679	1208.25
1076.899663	1206.25
1077.462589	1206.75
1078.025457	1210.75
1078.588268	1209.0
1079.151022	1198.5
1079.713718	1203.75
1080.276356	1205.0
1080.838937	1210.5
1081.401461	1220.0
1081.963927	1202.0
1082.526336	1206.0
1083.088687	1202.25
1083.650981	1202.0
1084.213217	1202.25
1084.775396	1195.0
1085.337517	1202.75
1085.899581	1223.0
1086.461587	1213.5
1087.023536	1208.0
1087.585428	1215.25
1088.147262	1210.25
1088.709039	1184.75
1089.270758	1194.25
1089.83242	1190.25
1090.394024	1208.25
1090.955571	1204.5
1091.517061	1205.0
1092.078493	1220.5
1092.639868	1214.25
1093.201185	1212.0
1093.762445	1200.5
1094.323648	1201.75
1094.884793	1201.0
1095.445881	1203.0
1096.006911	1199.0
1096.567884	1202.5
1097.1288	1214.25
1097.689659	1203.5
1098.25046	1191.75
1098.811203	1192.0
1099.37189	1192.25
1099.932518	1189.5
1100.49309	1201.75
1101.053604	1220.0
1101.614061	1195.25
1102.174461	1194.75
1102.734803	1205.75
1103.295088	1197.0
1103.855316	1193.5
1104.415486	1193.0
1104.975599	1205.75
1105.535655	1194.5
1106.095653	1195.5
1106.655594	1188.5
1107.215478	1205.75
1107.775305	1199.5
1108.335074	1192.25
1108.894786	1198.5
1109.45444	1196.5
1110.014038	1191.25
1110.573578	1204.25
1111.133061	1194.0
1111.692486	1203.0
1112.251854	1179.25
1112.811165	1185.75
1113.370419	1207.75
1113.929616	1197.75
1114.488755	1199.0
1115.047837	1206.25
1115.606862	1178.5
1116.16583	1220.5
1116.72474	1190.25
1117.283593	1210.0
1117.842389	1193.75
1118.401128	1205.75
1118.959809	1198.5
1119.518433	1188.25
1120.077	1197.5
1120.63551	1206.25
1121.193963	1188.25
1121.752358	1192.25
1122.310697	1182.75
1122.868978	1203.5
1123.427202	1209.25
1123.985368	1189.5
1124.543478	1190.0
1125.10153	1186.0
1125.659526	1195.75
1126.217464	1185.75
1126.775345	1204.5
1127.333168	1204.0
1127.890935	1222.75
1128.448644	1198.0
1129.006297	1191.5
1129.563892	1193.25
1130.12143	1189.25
1130.678911	1202.0
1131.236335	1195.0
1131.793701	1200.5
1132.351011	1192.0
1132.908263	1200.5
1133.465458	1194.75
1134.022597	1193.25
1134.579678	1196.75
1135.136702	1199.25
1135.693669	1199.5
1136.250578	1204.0
1136.807431	1206.75
1137.364227	1197.5
1137.920965	1193.5
1138.477647	1205.25
1139.034271	1190.5
1139.590839	1206.0
1140.147349	1212.75
1140.703802	1193.25
1141.260198	1196.5
1141.816537	1195.5
1142.37282	1193.25
1142.929045	1205.5
1143.485213	1192.25
1144.041323	1206.25
1144.597377	1197.0
1145.153374	1190.0
1145.709314	1193.25
1146.265197	1203.5
1146.821023	1208.25
1147.376792	1208.75
1147.932503	1212.25
1148.488158	1207.25
1149.043756	1210.25
1149.599297	1195.25
1150.154781	1208.25
1150.710207	1234.5
1151.265577	1223.25
1151.82089	1215.75
1152.376146	1208.0
1152.931345	1197.5
1153.486487	1184.5
1154.041572	1214.5
1154.5966	1213.5
1155.151571	1227.25
1155.706485	1179.0
1156.261342	1213.0
1156.816142	1204.75
1157.370885	1227.75
1157.925572	1191.5
1158.480201	1211.25
1159.034774	1201.0
1159.589289	1211.5
1160.143748	1189.75
1160.698149	1203.75
1161.252494	1204.5
1161.806782	1199.0
1162.361013	1221.5
1162.915187	1211.75
1163.469304	1201.5
1164.023364	1210.75
1164.577368	1208.25
1165.131314	1213.25
1165.685204	1218.5
1166.239036	1215.25
1166.792812	1210.0
1167.346531	1211.25
1167.900193	1210.25
1168.453798	1222.75
1169.007347	1220.5
1169.560838	1220.0
1170.114273	1219.5
1170.66765	1208.0
1171.220971	1210.5
1171.774235	1207.0
1172.327443	1200.75
1172.880593	1199.5
1173.433687	1205.75
1173.986723	1184.75
1174.539703	1208.75
1175.092626	1194.5
1175.645493	1194.5
1176.198302	1197.5
1176.751055	1201.75
1177.303751	1210.5
1177.85639	1198.75
1178.408972	1223.0
1178.961498	1214.5
1179.513966	1202.75
1180.066378	1211.25
1180.618733	1198.0
1181.171032	1192.25
1181.723273	1195.0
1182.275458	1197.5
1182.827586	1190.75
1183.379657	1202.25
1183.931672	1191.0
1184.48363	1204.5
1185.035531	1208.5
1185.587375	1207.0
1186.139162	1210.25
1186.690893	1193.5
1187.242567	1199.0
1187.794184	1204.75
1188.345745	1192.75
1188.897249	1191.75
1189.448696	1202.25
1190.000086	1191.25
1190.55142	1193.5
1191.102697	1211.25
1191.653918	1187.75
1192.205081	1196.25
1192.756188	1199.25
1193.307238	1234.75
1193.858232	1201.0
1194.409169	1190.0
1194.960049	1199.25
1195.510872	1204.75
1196.061639	1207.5
1196.612349	1207.0
1197.163003	1194.25
1197.713599	1202.0
1198.264139	1200.0
1198.814623	1192.25
1199.36505	1195.75
1199.91542	1210.75
1200.465734	1192.25
1201.01599	1198.0
1201.566191	1198.75
1202.116334	1193.0
1202.666421	1202.0
1203.216452	1204.0
1203.766425	1193.25
1204.316343	1192.0
1204.866203	1200.5
1205.416007	1200.25
1205.965754	1200.0
1206.515445	1210.0
1207.065079	1198.0
1207.614657	1198.5
1208.164177	1210.25
1208.713642	1207.75
1209.26305	1210.5
1209.812401	1191.0
1210.361695	1198.75
1210.910933	1197.25
1211.460115	1202.0
1212.00924	1206.0
1212.558308	1180.5
1213.10732	1208.75
1213.656275	1198.25
1214.205174	1191.75
1214.754016	1204.5
1215.302801	1205.75
1215.85153	1214.75
1216.400203	1204.0
1216.948819	1193.5
1217.497378	1197.25
1218.045881	1197.75
1218.594327	1205.0
1219.142717	1183.5
1219.691051	1196.75
1220.239327	1205.75
1220.787548	1194.75
1221.335712	1198.25
1221.883819	1199.0
1222.43187	1209.25
1222.979864	1184.0
1223.527802	1207.0
1224.075683	1194.25
1224.623508	1204.0
1225.171277	1192.0
1225.718989	1184.5
1226.266644	1203.5
1226.814243	1194.25
1227.361786	1186.0
1227.909272	1199.25
1228.456702	1204.75
1229.004075	1193.0
1229.551392	1202.25
1230.098652	1192.75
1230.645856	1204.0
1231.193003	1197.25
1231.740094	1200.75
1232.287129	1206.5
1232.834107	1212.25
1233.381029	1196.5
1233.927894	1208.25
1234.474703	1207.75
1235.021455	1205.5
1235.568151	1177.0
1236.114791	1188.75
1236.661374	1198.5
1237.207901	1207.75
1237.754372	1196.5
1238.300786	1201.25
1238.847144	1191.75
1239.393445	1203.25
1239.93969	1210.75
1240.485879	1208.5
1241.032011	1200.75
1241.578087	1189.25
1242.124106	1196.75
1242.67007	1201.75
1243.215976	1186.5
1243.761827	1196.5
1244.307621	1197.5
1244.853359	1187.0
1245.39904	1194.0
1245.944665	1191.25
1246.490234	1198.25
1247.035746	1197.75
1247.581203	1192.5
1248.126602	1187.25
1248.671946	1198.25
1249.217233	1199.25
1249.762464	1196.25
1250.307638	1185.75
1250.852757	1188.0
1251.397819	1191.5
1251.942824	1205.0
1252.487774	1186.25
1253.032667	1202.0
1253.577503	1195.5
1254.122284	1196.0
1254.667008	1199.25
1255.211676	1208.0
1255.756288	1199.5
1256.300843	1195.75
1256.845342	1205.5
1257.389785	1197.0
1257.934172	1200.5
1258.478502	1198.5
1259.022776	1198.75
1259.566994	1206.5
1260.111156	1216.25
1260.655261	1190.75
1261.199311	1205.25
1261.743304	1206.75
1262.28724	1207.25
1262.831121	1199.75
1263.374945	1213.75
1263.918713	1211.25
1264.462425	1219.25
1265.006081	1200.5
1265.54968	1225.5
1266.093223	1221.25
1266.636711	1200.75
1267.180141	1186.5
1267.723516	1197.5
1268.266835	1187.75
1268.810097	1194.0
1269.353303	1203.5
1269.896453	1189.5
1270.439547	1191.75
1270.982584	1199.5
1271.525566	1203.0
1272.068491	1201.0
1272.61136	1206.75
1273.154173	1199.5
1273.69693	1208.5
1274.239631	1202.5
1274.782275	1195.0
1275.324864	1203.0
1275.867396	1203.0
1276.409872	1196.75
1276.952292	1207.75
1277.494656	1189.75
1278.036964	1197.75
1278.579215	1206.5
1279.121411	1194.5
1279.66355	1190.75
1280.205634	1194.25
1280.747661	1195.5
1281.289632	1218.5
1281.831547	1197.5
1282.373406	1210.25
1282.915209	1207.0
1283.456955	1219.5
1283.998646	1210.5
1284.540281	1243.75
1285.081859	1324.0
1285.623381	1561.25
1286.164848	1457.25
1286.706258	1278.5
1287.247612	1227.5
1287.788911	1209.0
1288.330153	1199.0
1288.871339	1188.25
1289.412469	1204.5
1289.953543	1205.25
1290.494561	1201.25
1291.035523	1206.75
1291.576428	1207.0
1292.117278	1203.25
1292.658072	1209.75
1293.19881	1196.5
1293.739492	1206.75
1294.280118	1208.0
1294.820687	1209.75
1295.361201	1208.0
1295.901659	1204.0
1296.442061	1198.25
1296.982406	1206.0
1297.522696	1203.25
1298.06293	1197.25
1298.603108	1205.75
1299.143229	1202.0
1299.683295	1202.0
1300.223305	1204.25
1300.763259	1200.0
1301.303157	1203.75
1301.842999	1193.25
1302.382785	1202.25
1302.922515	1207.0
1303.462189	1194.25
1304.001807	1211.25
1304.541369	1200.75
1305.080875	1207.0
1305.620326	1202.5
1306.15972	1192.75
1306.699058	1203.25
1307.238341	1195.0
1307.777567	1201.0
1308.316738	1190.25
1308.855853	1186.5
1309.394912	1206.75
1309.933915	1195.5
1310.472862	1193.0
1311.011753	1192.5
1311.550588	1188.5
1312.089367	1183.75
1312.62809	1186.25
1313.166758	1196.5
1313.70537	1189.75
1314.243925	1193.0
1314.782425	1195.5
1315.320869	1195.75
1315.859257	1181.0
1316.397589	1190.75
1316.935866	1198.5
1317.474086	1173.25
1318.012251	1181.5
1318.55036	1183.75
1319.088413	1186.5
1319.62641	1193.0
1320.164351	1172.25
1320.702236	1211.5
1321.240066	1181.5
1321.777839	1191.0
1322.315557	1193.25
1322.853219	1191.25
1323.390826	1181.5
1323.928376	1189.25
1324.465871	1179.0
1325.003309	1202.25
1325.540692	1187.5
1326.07802	1186.25
1326.615291	1179.25
1327.152506	1190.25
1327.689666	1204.25
1328.22677	1188.25
1328.763818	1176.75
1329.300811	1199.0
1329.837747	1191.5
1330.374628	1190.75
1330.911453	1177.0
1331.448222	1191.25
1331.984936	1191.25
1332.521594	1186.5
1333.058196	1191.0
1333.594742	1197.75
1334.131232	1176.5
1334.667667	1191.0
1335.204046	1193.0
1335.740369	1174.75
1336.276637	1176.5
1336.812848	1182.25
1337.349004	1189.0
1337.885105	1189.25
1338.421149	1186.0
1338.957138	1188.5
1339.493071	1190.25
1340.028949	1190.5
1340.56477	1187.5
1341.100536	1182.5
1341.636246	1182.0
1342.171901	1188.25
1342.7075	1182.75
1343.243043	1195.0
1343.77853	1197.75
1344.313962	1201.25
1344.849338	1188.25
1345.384659	1175.75
1345.919923	1192.25
1346.455133	1183.75
1346.990286	1183.75
1347.525384	1188.0
1348.060426	1192.75
1348.595412	1189.0
1349.130343	1186.25
1349.665218	1168.25
1350.200037	1194.5
1350.734801	1184.5
1351.269509	1188.75
1351.804162	1198.5
1352.338758	1193.75
1352.8733	1183.0
1353.407785	1193.75
1353.942215	1194.5
1354.476589	1182.75
1355.010908	1176.75
1355.545171	1185.25
1356.079379	1188.25
1356.61353	1193.25
1357.147627	1176.75
1357.681667	1195.25
1358.215652	1185.75
1358.749582	1193.5
1359.283456	1193.5
1359.817274	1172.75
1360.351037	1189.5
1360.884744	1178.75
1361.418395	1181.75
1361.951991	1196.25
1362.485531	1184.75
1363.019016	1185.0
1363.552445	1193.25
1364.085819	1197.75
1364.619137	1188.5
1365.1524	1178.75
1365.685607	1178.75
1366.218758	1191.75
1366.751854	1176.75
1367.284894	1191.75
1367.817879	1197.25
1368.350808	1201.5
1368.883682	1187.25
1369.4165	1186.25
1369.949263	1188.75
1370.48197	1209.5
1371.014622	1202.5
1371.547218	1209.75
1372.079758	1199.25
1372.612244	1182.75
1373.144673	1187.5
1373.677047	1197.75
1374.209366	1189.75
1374.741629	1179.5
1375.273836	1187.5
1375.805989	1190.75
1376.338085	1172.5
1376.870126	1194.0
1377.402112	1182.0
1377.934042	1194.5
1378.465917	1193.75
1378.997736	1189.75
1379.5295	1193.75
1380.061208	1188.0
1380.592861	1188.75
1381.124459	1181.75
1381.656	1191.0
1382.187487	1188.75
1382.718918	1185.0
1383.250294	1178.0
1383.781614	1193.0
1384.312879	1194.25
1384.844088	1187.5
1385.375242	1177.25
1385.90634	1192.5
1386.437383	1194.5
1386.968371	1199.25
1387.499303	1217.25
1388.03018	1260.5
1388.561001	1531.75
1389.091767	1780.25
1389.622478	1431.25
1390.153133	1229.5
1390.683733	1203.5
1391.214277	1190.5
1391.744766	1190.0
1392.2752	1193.25
1392.805578	1182.0
1393.335901	1189.5
1393.866168	1187.75
1394.396381	1180.5
1394.926537	1190.5
1395.456639	1195.75
1395.986685	1189.25
1396.516675	1179.5
1397.046611	1188.5
1397.576491	1189.5
1398.106315	1193.75
1398.636084	1190.5
1399.165798	1192.25
1399.695457	1184.5
1400.22506	1187.25
1400.754608	1180.5
1401.284101	1190.5
1401.813538	1182.5
1402.34292	1183.25
1402.872247	1180.25
1403.401518	1185.25
1403.930734	1183.5
1404.459895	1185.25
1404.989	1196.5
1405.51805	1188.0
1406.047045	1186.5
1406.575984	1194.25
1407.104869	1200.5
1407.633697	1189.25
1408.162471	1206.5
1408.691189	1213.5
1409.219852	1197.5
1409.74846	1213.25
1410.277013	1228.25
1410.80551	1228.0
1411.333952	1212.5
1411.862339	1188.0
1412.39067	1179.75
1412.918946	1184.75
1413.447167	1174.0
1413.975333	1191.0
1414.503444	1185.0
1415.031499	1167.75
1415.559499	1207.0
1416.087444	1189.5
1416.615333	1188.5
1417.143167	1186.0
1417.670947	1198.5
1418.19867	1185.5
1418.726339	1179.0
1419.253952	1191.5
1419.781511	1184.25
1420.309014	1193.5
1420.836461	1184.5
1421.363854	1193.0
1421.891191	1172.75
1422.418474	1171.0
1422.945701	1196.25
1423.472872	1183.0
1423.999989	1197.0
1424.52705	1203.0
1425.054057	1191.75
1425.581008	1179.25
1426.107904	1186.0
1426.634745	1183.25
1427.16153	1187.25
1427.688261	1177.25
1428.214936	1188.5
1428.741556	1188.0
1429.268121	1185.0
1429.794631	1173.0
1430.321085	1184.75
1430.847485	1181.25
1431.373829	1182.25
1431.900118	1185.5
1432.426353	1187.75
1432.952532	1193.25
1433.478655	1194.25
1434.004724	1186.5
1434.530738	1194.75
1435.056696	1200.0
1435.5826	1186.75
1436.108448	1190.75
1436.634241	1188.0
1437.159979	1177.0
1437.685662	1189.75
1438.21129	1188.75
1438.736863	1192.75
1439.262381	1194.5
1439.787843	1186.25
1440.313251	1183.75
1440.838603	1189.0
1441.3639	1200.0
1441.889143	1189.5
1442.41433	1196.5
1442.939462	1185.75
1443.464539	1200.25
1443.989561	1194.75
1444.514528	1170.25
1445.03944	1183.0
1445.564297	1168.25
1446.089099	1187.75
1446.613846	1178.75
1447.138537	1190.75
1447.663174	1195.75
1448.187756	1184.0
1448.712282	1187.25
1449.236754	1193.75
1449.761171	1185.25
1450.285532	1191.5
1450.809839	1195.25
1451.33409	1177.0
1451.858287	1172.0
1452.382428	1171.0
1452.906515	1186.75
1453.430546	1198.5
1453.954523	1197.5
1454.478444	1181.25
1455.002311	1191.0
1455.526123	1187.25
1456.049879	1187.25
1456.573581	1172.25
1457.097227	1178.75
1457.620819	1175.25
1458.144356	1185.25
1458.667837	1201.5
1459.191264	1192.75
1459.714636	1191.5
1460.237952	1199.75
1460.761214	1182.5
1461.284421	1187.75
1461.807573	1185.0
1462.33067	1192.0
1462.853712	1199.0
1463.899632	1218.5
1464.422509	1169.75
1464.945331	1178.5
1465.468099	1180.5
1465.990811	1179.5
1466.513469	1197.25
1467.036071	1172.5
1467.558619	1192.25
1468.081112	1173.75
1468.60355	1183.5
1469.125933	1192.5
1469.648261	1186.25
1470.170534	1179.5
1470.692752	1185.0
1471.214916	1186.25
1471.737024	1172.0
1472.259078	1178.5
1472.781077	1177.25
1473.303021	1182.0
1473.82491	1176.0
1474.346744	1197.25
1474.868523	1184.25
1475.390248	1185.25
1475.911917	1174.25
1476.433532	1179.0
1476.955092	1172.75
1477.476597	1174.0
1477.998047	1173.0
1478.519442	1161.75
1479.040783	1184.0
1479.562068	1179.75
1480.083299	1159.75
1480.604475	1171.5
1481.125596	1176.25
1481.646663	1168.25
1482.167674	1186.5
1482.688631	1195.0
1483.209533	1176.5
1483.73038	1172.0
1484.251172	1185.0
1484.771909	1177.5
1485.292592	1177.0
1485.81322	1187.25
1486.333793	1171.75
1486.854311	1169.0
1487.374775	1171.75
1487.895183	1184.0
1488.415537	1180.75
1488.935836	1167.25
1489.456081	1173.75
1489.97627	1176.0
1490.496405	1182.5
1491.016485	1185.0
1491.536511	1178.25
1492.056481	1190.5
1492.576397	1170.25
1493.096258	1191.75
1493.616064	1166.0
1494.135816	1175.0
1494.655513	1174.5
1495.175155	1172.5
1495.694742	1168.5
1496.214274	1182.5
1496.733752	1163.75
1497.253175	1166.25
1497.772544	1183.25
1498.291858	1180.75
1498.811116	1173.75
1499.330321	1170.75
1499.84947	1193.75
1500.368565	1174.25
1500.887605	1172.0
1501.406591	1175.75
1501.925521	1160.25
1502.444397	1179.0
1502.963219	1188.0
1503.481985	1182.75
1504.000697	1168.5
1504.519355	1167.5
1505.037957	1170.0
1505.556505	1168.25
1506.074999	1167.25
1506.593437	1166.75
1507.111821	1175.75
1507.63015	1180.25
1508.148425	1172.5
1508.666645	1168.25
1509.18481	1176.75
1509.702921	1172.75
1510.220977	1175.5
1510.738979	1182.5
1511.256925	1172.25
1511.774817	1175.25
1512.292655	1182.75
1512.810438	1176.25
1513.328166	1182.0
1513.84584	1171.5
1514.363459	1173.75
1514.881023	1177.75
1515.398533	1174.5
1515.915988	1164.25
1516.433389	1182.5
1516.950734	1164.5
1517.468026	1172.0
1517.985263	1174.0
1518.502445	1174.0
1519.019572	1172.5
1519.536645	1176.5
1520.053664	1164.25
1520.570628	1179.25
1521.087537	1165.0
1521.604392	1171.5
1522.121192	1167.75
1522.637937	1173.75
1523.154628	1181.5
1523.671265	1172.5
1524.187847	1170.75
1524.704374	1160.5
1525.220847	1194.25
1525.737265	1195.25
1526.253629	1217.75
1526.769938	1200.25
1527.286192	1181.25
1527.802392	1174.5
1528.318538	1166.5
1528.834629	1175.5
1529.350666	1174.0
1529.866648	1165.25
1530.382575	1185.25
1530.898448	1171.0
1531.414266	1165.5
1531.93003	1178.25
1532.44574	1181.25
1532.961395	1175.25
1533.476995	1168.25
1533.992541	1173.5
1534.508033	1177.5
1535.02347	1172.5
1535.538852	1161.25
1536.05418	1160.0
1536.569454	1177.75
1537.084673	1163.0
1537.599837	1176.75
1538.114947	1179.0
1538.630003	1186.5
1539.145004	1176.25
1539.659951	1163.25
1540.174843	1169.0
1540.689681	1169.5
1541.204465	1172.5
1541.719194	1177.0
1542.233868	1176.5
1542.748488	1174.0
1543.263054	1173.5
1543.777565	1173.25
1544.292022	1160.5
1544.806424	1173.75
1545.320772	1169.75
1545.835066	1165.75
1546.349305	1167.75
1546.863489	1166.0
1547.37762	1172.75
1547.891696	1178.5
1548.405717	1165.75
1548.919684	1166.75
1549.433597	1167.25
1549.947455	1176.0
1550.461259	1155.0
1550.975009	1169.75
1551.488704	1174.75
1552.002345	1168.0
1552.515931	1181.25
1553.029463	1171.25
1553.542941	1175.25
1554.056364	1175.25
1554.569733	1173.5
1555.083048	1183.5
1555.596308	1179.0
1556.109514	1173.5
1556.622665	1169.75
1557.135762	1172.75
1557.648805	1174.0
1558.161794	1178.5
1558.674728	1182.75
1559.187608	1173.5
1559.700433	1169.0
1560.213205	1176.0
1560.725921	1172.0
1561.238584	1197.75
1561.751192	1183.25
1562.263746	1178.75
1562.776246	1170.25
1563.288691	1181.75
1563.801082	1176.75
1564.313419	1178.0
1564.825701	1176.5
1565.337929	1184.5
1565.850103	1176.0
1566.362223	1183.75
1566.874288	1176.5
1567.386299	1183.75
1567.898256	1170.0
1568.410158	1179.0
1568.922007	1180.25
1569.4338	1177.75
1569.94554	1168.0
1570.457226	1180.25
1570.968857	1171.0
1571.480434	1187.75
1571.991956	1171.5
1572.503425	1177.25
1573.014839	1184.75
1573.526199	1172.25
1574.037505	1177.75
1574.548756	1177.75
1575.059953	1176.0
1575.571096	1189.75
1576.082185	1177.25
1576.59322	1180.75
1577.1042	1170.5
1577.615126	1171.25
1578.125998	1188.25
1578.636816	1176.0
1579.14758	1180.75
1579.658289	1184.0
1580.168944	1184.5
1580.679545	1188.25
1581.190092	1182.75
1581.700585	1186.75
1582.211023	1188.5
1582.721407	1181.0
1583.231737	1174.0
1583.742013	1181.0
1584.252235	1169.25
1584.762403	1183.5
1585.272516	1169.5
1585.782575	1175.5
1586.292581	1182.75
1586.802532	1170.5
1587.312428	1177.25
1587.822271	1180.25
1588.33206	1178.75
1588.841794	1180.75
1589.351474	1167.75
1589.8611	1171.75
1590.370672	1164.25
1590.88019	1171.5
1591.389654	1171.75
1591.899064	1185.5
